# OpenSignals Text File Format
# {"98:D3:31:B2:BC:63":{"sensor":["RAW","RAW","RAW","RAW","RAW","RAW"],"device name":"98:D3:31:B2:BC:63","column":["nSeq","I1","I2","O1","O2","A1","A2","A3","A4","A5","A6"],"sync interval":2,"time":"12:51:37","comments":"","device connection":"BTH98:D3:31:B2:BC:63","channels":[1,2,3,4,5,6],"date":"2020-02-14","mode":0,"digital IO":[0,0,1,1],"firmware version":"0","device":"bitalino","position":0,"sampling rate":1000,"label":["A1","A2","A3","A4","A5","A6"],"resolution":[10,10,10,10,6,6],"special":[{},{},{},{},{},{}]}}
# EndOfHeader
0	1	1	1	1	24	24	480	300	1	35
1	1	1	1	1	27	24	480	300	1	35
2	1	1	1	1	27	24	480	300	1	35
3	1	1	1	1	25	25	481	300	1	35
4	1	1	1	1	35	31	481	300	1	35
5	1	1	1	1	31	25	483	300	1	35
6	1	1	1	1	35	31	483	300	1	35
7	1	1	1	1	31	25	483	300	1	35
8	1	1	1	1	31	28	483	300	1	35
9	1	1	1	1	25	24	483	300	1	35
10	1	1	1	1	24	24	483	300	1	35
11	1	1	1	1	28	24	483	300	1	35
12	1	1	1	1	28	24	483	300	1	35
13	1	1	1	1	28	24	486	300	1	35
14	1	1	1	1	24	24	486	300	1	35
15	1	1	1	1	28	24	486	300	1	35
0	1	1	1	1	28	24	486	300	1	35
1	1	1	1	1	24	24	487	300	1	35
2	1	1	1	1	28	24	487	300	1	35
3	1	1	1	1	28	24	487	300	1	35
4	1	1	1	1	28	24	487	300	1	35
5	1	1	1	1	28	24	487	300	1	35
6	1	1	1	1	24	24	487	300	1	35
7	1	1	1	1	35	31	487	300	1	35
8	1	1	1	1	28	24	487	300	1	35
9	1	1	1	1	24	24	487	300	1	35
10	1	1	1	1	28	24	487	300	1	35
11	1	1	1	1	35	31	487	300	1	35
12	1	1	1	1	28	24	487	300	1	35
13	1	1	1	1	28	24	487	300	1	35
14	1	1	1	1	35	31	489	300	1	35
15	1	1	1	1	28	24	492	300	1	35
0	1	1	1	1	28	24	492	300	1	35
1	1	1	1	1	28	24	494	300	1	35
2	1	1	1	1	28	24	496	300	1	35
3	1	1	1	1	24	25	497	300	1	35
4	1	1	1	1	28	24	499	300	1	35
5	1	1	1	1	28	24	500	300	1	35
6	1	1	1	1	31	28	504	300	1	35
7	1	1	1	1	28	24	504	300	1	35
8	1	1	1	1	31	28	504	300	1	35
9	1	1	1	1	31	28	504	300	1	35
10	1	1	1	1	28	24	504	300	1	35
11	1	1	1	1	28	24	499	300	1	35
12	1	1	1	1	27	24	497	300	1	35
13	1	1	1	1	28	24	496	300	1	35
14	1	1	1	1	24	24	494	300	1	35
15	1	1	1	1	31	25	492	300	1	35
0	1	1	1	1	27	24	487	300	1	35
1	1	1	1	1	31	28	487	300	1	35
2	1	1	1	1	31	28	486	300	1	35
3	1	1	1	1	28	24	483	300	1	35
4	1	1	1	1	28	24	483	300	1	35
5	1	1	1	1	31	28	483	300	1	35
6	1	1	1	1	28	24	483	300	1	35
7	1	1	1	1	35	31	483	300	1	35
8	1	1	1	1	28	24	486	300	1	35
9	1	1	1	1	25	24	487	300	1	35
10	1	1	1	1	28	24	487	300	1	35
11	1	1	1	1	24	24	489	300	1	35
12	1	1	1	1	28	24	492	300	1	35
13	1	1	1	1	31	28	492	300	1	35
14	1	1	1	1	28	24	492	300	1	35
15	1	1	1	1	31	28	492	300	1	35
0	1	1	1	1	28	24	492	300	1	35
1	1	1	1	1	28	24	487	300	1	35
2	1	1	1	1	28	24	487	300	1	35
3	1	1	1	1	28	24	486	300	1	35
4	1	1	1	1	28	24	481	300	1	35
5	1	1	1	1	28	24	480	300	1	35
6	1	1	1	1	35	31	476	300	1	35
7	1	1	1	1	28	24	473	300	1	35
8	1	1	1	1	28	24	472	300	1	35
9	1	1	1	1	31	28	472	300	1	35
10	1	1	1	1	28	24	467	300	1	35
11	1	1	1	1	31	28	467	300	1	35
12	1	1	1	1	28	24	467	300	1	35
13	1	1	1	1	28	24	467	300	1	35
14	1	1	1	1	24	24	467	300	1	35
15	1	1	1	1	28	24	470	300	1	35
0	1	1	1	1	28	24	472	300	1	35
1	1	1	1	1	35	31	472	300	1	35
2	1	1	1	1	31	28	473	300	1	35
3	1	1	1	1	31	28	476	300	1	35
4	1	1	1	1	28	24	478	300	1	35
5	1	1	1	1	28	24	480	300	1	35
6	1	1	1	1	28	24	480	300	1	35
7	1	1	1	1	28	24	480	300	1	35
8	1	1	1	1	19	24	481	300	1	35
9	1	1	1	1	25	24	483	300	1	35
10	1	1	1	1	35	31	483	300	1	35
11	1	1	1	1	24	24	483	300	1	35
12	1	1	1	1	24	24	483	300	1	35
13	1	1	1	1	31	28	483	300	1	35
14	1	1	1	1	27	24	483	300	1	35
15	1	1	1	1	35	31	483	300	1	35
0	1	1	1	1	27	24	483	300	1	35
1	1	1	1	1	24	24	483	300	1	35
2	1	1	1	1	35	31	483	300	1	35
3	1	1	1	1	24	24	483	300	1	35
4	1	1	1	1	31	28	486	300	1	35
5	1	1	1	1	31	28	486	300	1	35
6	1	1	1	1	35	31	486	300	1	35
7	1	1	1	1	31	28	487	300	1	35
8	1	1	1	1	27	24	487	300	1	35
9	1	1	1	1	25	24	487	300	1	35
10	1	1	1	1	35	31	487	300	1	35
11	1	1	1	1	27	24	487	300	1	35
12	1	1	1	1	35	31	487	300	1	35
13	1	1	1	1	31	28	487	300	1	35
14	1	1	1	1	24	24	487	300	1	35
15	1	1	1	1	28	24	487	300	1	35
0	1	1	1	1	28	24	487	300	1	35
1	1	1	1	1	31	28	487	300	1	35
2	1	1	1	1	28	24	492	300	1	35
3	1	1	1	1	31	28	492	300	1	35
4	1	1	1	1	28	24	496	300	1	35
5	1	1	1	1	28	24	497	300	1	35
6	1	1	1	1	31	28	502	300	1	35
7	1	1	1	1	31	28	504	300	1	35
8	1	1	1	1	31	28	510	300	1	35
9	1	1	1	1	28	24	513	300	1	35
10	1	1	1	1	28	24	519	300	1	35
11	1	1	1	1	27	24	521	300	1	35
12	1	1	1	1	31	28	526	300	1	35
13	1	1	1	1	27	24	527	300	1	35
14	1	1	1	1	28	24	531	300	1	35
15	1	1	1	1	31	27	531	300	1	35
0	1	1	1	1	28	24	531	300	1	35
1	1	1	1	1	28	24	531	300	1	35
2	1	1	1	1	31	28	527	300	1	35
3	1	1	1	1	28	24	527	300	1	35
4	1	1	1	1	28	24	521	300	1	35
5	1	1	1	1	27	24	518	300	1	35
6	1	1	1	1	35	31	512	300	1	35
7	1	1	1	1	24	24	508	300	1	35
8	1	1	1	1	28	24	504	300	1	35
9	1	1	1	1	28	24	499	300	1	35
10	1	1	1	1	28	24	496	300	1	35
11	1	1	1	1	28	24	492	300	1	35
12	1	1	1	1	28	24	487	300	1	35
13	1	1	1	1	27	24	487	300	1	35
14	1	1	1	1	24	24	486	300	1	35
15	1	1	1	1	28	24	486	300	1	35
0	1	1	1	1	27	24	486	300	1	35
1	1	1	1	1	28	24	487	300	1	35
2	1	1	1	1	28	24	487	300	1	35
3	1	1	1	1	31	28	492	300	1	35
4	1	1	1	1	28	24	494	300	1	35
5	1	1	1	1	35	31	496	300	1	35
6	1	1	1	1	27	24	497	300	1	35
7	1	1	1	1	25	24	499	300	1	35
8	1	1	1	1	28	24	499	300	1	35
9	1	1	1	1	35	31	499	300	1	35
10	1	1	1	1	31	28	499	300	1	35
11	1	1	1	1	31	28	499	300	1	35
12	1	1	1	1	31	28	499	300	1	35
13	1	1	1	1	28	24	497	300	1	35
14	1	1	1	1	31	28	496	300	1	35
15	1	1	1	1	24	24	494	300	1	35
0	1	1	1	1	28	24	492	300	1	35
1	1	1	1	1	28	24	487	300	1	35
2	1	1	1	1	31	28	487	300	1	35
3	1	1	1	1	24	24	483	300	1	35
4	1	1	1	1	35	31	481	300	1	35
5	1	1	1	1	27	24	480	300	1	35
6	1	1	1	1	31	28	480	300	1	35
7	1	1	1	1	31	28	480	300	1	35
8	1	1	1	1	28	24	480	300	1	35
9	1	1	1	1	28	24	480	300	1	35
10	1	1	1	1	31	28	478	300	1	35
11	1	1	1	1	28	24	478	300	1	35
12	1	1	1	1	27	24	478	300	1	35
13	1	1	1	1	28	24	476	300	1	35
14	1	1	1	1	24	24	476	300	1	35
15	1	1	1	1	28	24	476	300	1	35
0	1	1	1	1	28	24	476	300	1	35
1	1	1	1	1	31	25	473	300	1	35
2	1	1	1	1	31	27	473	300	1	35
3	1	1	1	1	31	25	473	300	1	35
4	1	1	1	1	27	24	473	300	1	35
5	1	1	1	1	31	27	476	300	1	35
6	1	1	1	1	27	24	476	300	1	35
7	1	1	1	1	27	24	476	300	1	35
8	1	1	1	1	31	28	480	300	1	35
9	1	1	1	1	25	24	480	300	1	35
10	1	1	1	1	28	24	480	300	1	35
11	1	1	1	1	35	31	483	300	1	35
12	1	1	1	1	27	24	483	300	1	35
13	1	1	1	1	31	27	487	300	1	35
14	1	1	1	1	31	28	487	300	1	35
15	1	1	1	1	25	24	489	300	1	35
0	1	1	1	1	27	24	492	300	1	35
1	1	1	1	1	27	24	492	300	1	35
2	1	1	1	1	28	24	494	300	1	35
3	1	1	1	1	31	28	494	300	1	35
4	1	1	1	1	28	24	494	300	1	35
5	1	1	1	1	35	31	492	300	1	35
6	1	1	1	1	35	31	492	300	1	35
7	1	1	1	1	35	28	487	300	1	35
8	1	1	1	1	31	28	487	300	1	35
9	1	1	1	1	27	24	486	300	1	35
10	1	1	1	1	28	24	483	300	1	35
11	1	1	1	1	27	24	480	300	1	35
12	1	1	1	1	31	28	480	300	1	35
13	1	1	1	1	31	28	476	300	1	35
14	1	1	1	1	25	24	476	300	1	35
15	1	1	1	1	31	28	476	300	1	35
0	1	1	1	1	28	24	476	300	1	35
1	1	1	1	1	24	24	476	300	1	35
2	1	1	1	1	28	24	480	300	1	35
3	1	1	1	1	27	24	480	300	1	35
4	1	1	1	1	31	28	481	300	1	35
5	1	1	1	1	24	24	483	300	1	35
6	1	1	1	1	35	31	487	300	1	35
7	1	1	1	1	31	28	487	300	1	35
8	1	1	1	1	31	28	492	300	1	35
9	1	1	1	1	28	24	494	300	1	35
10	1	1	1	1	31	28	496	300	1	35
11	1	1	1	1	35	31	496	300	1	35
12	1	1	1	1	28	24	496	300	1	35
13	1	1	1	1	28	24	496	300	1	35
14	1	1	1	1	28	24	496	300	1	35
15	1	1	1	1	31	28	496	300	1	35
0	1	1	1	1	24	24	494	300	1	35
1	1	1	1	1	28	24	492	300	1	35
2	1	1	1	1	28	24	487	300	1	35
3	1	1	1	1	25	28	487	300	1	35
4	1	1	1	1	28	24	483	300	1	35
5	1	1	1	1	28	24	480	300	1	35
6	1	1	1	1	35	31	476	300	1	35
7	1	1	1	1	28	24	472	300	1	35
8	1	1	1	1	28	24	467	300	1	35
9	1	1	1	1	31	28	463	300	1	35
10	1	1	1	1	28	24	455	300	1	35
11	1	1	1	1	28	24	451	300	1	35
12	1	1	1	1	28	24	448	300	1	35
13	1	1	1	1	31	28	441	300	1	35
14	1	1	1	1	24	24	435	300	1	35
15	1	1	1	1	28	24	432	300	1	35
0	1	1	1	1	35	31	428	300	1	35
1	1	1	1	1	31	28	423	300	1	35
2	1	1	1	1	31	28	419	300	1	35
3	1	1	1	1	31	28	419	300	1	35
4	1	1	1	1	27	24	415	300	1	35
5	1	1	1	1	31	25	419	300	1	35
6	1	1	1	1	25	24	419	300	1	35
7	1	1	1	1	28	24	423	300	1	35
8	1	1	1	1	31	27	428	300	1	35
9	1	1	1	1	25	24	432	300	1	35
10	1	1	1	1	27	24	440	300	1	35
11	1	1	1	1	31	27	448	300	1	35
12	1	1	1	1	31	27	455	300	1	35
13	1	1	1	1	25	24	467	300	1	35
14	1	1	1	1	28	24	480	300	1	35
15	1	1	1	1	35	31	496	300	1	35
0	1	1	1	1	31	28	515	300	1	35
1	1	1	1	1	35	31	537	300	1	35
2	1	1	1	1	25	24	563	300	1	35
3	1	1	1	1	27	24	591	300	1	35
4	1	1	1	1	27	24	622	300	1	35
5	1	1	1	1	28	24	655	300	1	35
6	1	1	1	1	35	31	689	300	1	35
7	1	1	1	1	31	28	728	300	1	35
8	1	1	1	1	31	28	768	300	1	35
9	1	1	1	1	31	28	799	300	1	35
10	1	1	1	1	27	24	839	300	1	35
11	1	1	1	1	27	24	880	300	1	35
12	1	1	1	1	28	24	915	300	1	35
13	1	1	1	1	31	28	952	300	1	35
14	1	1	1	1	25	24	984	300	1	35
15	1	1	1	1	31	25	1011	300	1	35
0	1	1	1	1	28	24	1020	300	1	35
1	1	1	1	1	35	31	1019	300	1	35
2	1	1	1	1	28	24	1020	300	1	35
3	1	1	1	1	28	24	1020	300	1	35
4	1	1	1	1	31	28	1020	300	1	35
5	1	1	1	1	28	24	1020	300	1	35
6	1	1	1	1	25	24	1020	300	1	35
7	1	1	1	1	27	24	1008	300	1	35
8	1	1	1	1	31	28	985	300	1	35
9	1	1	1	1	25	24	956	300	1	35
10	1	1	1	1	31	27	920	300	1	35
11	1	1	1	1	31	27	871	300	1	35
12	1	1	1	1	25	24	824	300	1	35
13	1	1	1	1	28	24	768	300	1	35
14	1	1	1	1	31	25	711	300	1	35
15	1	1	1	1	28	24	655	300	1	35
0	1	1	1	1	28	24	604	300	1	35
1	1	1	1	1	28	24	551	300	1	35
2	1	1	1	1	31	28	508	300	1	35
3	1	1	1	1	24	24	467	300	1	35
4	1	1	1	1	27	24	435	300	1	35
5	1	1	1	1	31	28	412	300	1	35
6	1	1	1	1	35	31	391	300	1	35
7	1	1	1	1	28	24	384	300	1	35
8	1	1	1	1	28	24	376	300	1	35
9	1	1	1	1	28	24	371	300	1	35
10	1	1	1	1	28	24	371	300	1	35
11	1	1	1	1	28	19	374	300	1	35
12	1	1	1	1	35	31	376	300	1	35
13	1	1	1	1	27	24	376	300	1	35
14	1	1	1	1	22	24	376	300	1	35
15	1	1	1	1	27	24	371	300	1	35
0	1	1	1	1	31	28	368	300	1	35
1	1	1	1	1	31	28	364	300	1	35
2	1	1	1	1	28	24	358	300	1	35
3	1	1	1	1	28	24	352	300	1	35
4	1	1	1	1	31	28	344	300	1	35
5	1	1	1	1	24	24	337	300	1	35
6	1	1	1	1	35	31	335	300	1	35
7	1	1	1	1	28	24	332	300	1	35
8	1	1	1	1	28	24	332	300	1	35
9	1	1	1	1	31	28	334	300	1	35
10	1	1	1	1	31	28	337	300	1	35
11	1	1	1	1	31	28	344	300	1	35
12	1	1	1	1	28	24	353	300	1	35
13	1	1	1	1	28	24	364	300	1	35
14	1	1	1	1	27	24	376	300	1	35
15	1	1	1	1	31	28	391	300	1	35
0	1	1	1	1	27	24	403	300	1	35
1	1	1	1	1	28	24	415	300	1	35
2	1	1	1	1	28	24	432	300	1	35
3	1	1	1	1	24	25	444	300	1	35
4	1	1	1	1	28	24	455	300	1	35
5	1	1	1	1	28	24	465	300	1	35
6	1	1	1	1	24	24	473	300	1	35
7	1	1	1	1	28	24	480	300	1	35
8	1	1	1	1	27	24	486	300	1	35
9	1	1	1	1	28	24	487	300	1	35
10	1	1	1	1	28	24	487	300	1	35
11	1	1	1	1	31	28	487	300	1	35
12	1	1	1	1	28	24	487	300	1	35
13	1	1	1	1	35	31	487	300	1	35
14	1	1	1	1	24	24	486	300	1	35
15	1	1	1	1	35	31	483	300	1	35
0	1	1	1	1	28	24	480	300	1	35
1	1	1	1	1	31	27	480	300	1	35
2	1	1	1	1	28	24	480	300	1	35
3	1	1	1	1	28	24	480	300	1	35
4	1	1	1	1	27	24	480	300	1	35
5	1	1	1	1	28	24	480	300	1	35
6	1	1	1	1	35	31	480	300	1	35
7	1	1	1	1	27	24	480	300	1	35
8	1	1	1	1	24	24	483	300	1	35
9	1	1	1	1	31	28	483	300	1	35
10	1	1	1	1	31	28	487	300	1	35
11	1	1	1	1	35	31	487	300	1	35
12	1	1	1	1	31	28	487	300	1	35
13	1	1	1	1	31	27	492	300	1	35
14	1	1	1	1	31	27	492	300	1	35
15	1	1	1	1	35	31	494	300	1	35
0	1	1	1	1	28	24	496	300	1	35
1	1	1	1	1	24	24	496	300	1	35
2	1	1	1	1	31	28	496	300	1	35
3	1	1	1	1	28	24	497	300	1	35
4	1	1	1	1	28	24	497	300	1	35
5	1	1	1	1	28	24	499	300	1	35
6	1	1	1	1	31	28	499	300	1	35
7	1	1	1	1	27	24	499	300	1	35
8	1	1	1	1	31	28	502	300	1	35
9	1	1	1	1	27	24	504	300	1	35
10	1	1	1	1	31	28	504	300	1	35
11	1	1	1	1	28	24	504	300	1	35
12	1	1	1	1	31	27	504	300	1	35
13	1	1	1	1	27	24	504	300	1	35
14	1	1	1	1	28	28	504	300	1	35
15	1	1	1	1	28	24	504	300	1	35
0	1	1	1	1	31	28	504	300	1	35
1	1	1	1	1	24	24	504	300	1	35
2	1	1	1	1	28	24	504	300	1	35
3	1	1	1	1	28	24	505	300	1	35
4	1	1	1	1	28	24	505	300	1	35
5	1	1	1	1	31	28	508	300	1	35
6	1	1	1	1	28	24	508	300	1	35
7	1	1	1	1	28	24	508	300	1	35
8	1	1	1	1	28	24	508	300	1	35
9	1	1	1	1	28	24	510	300	1	35
10	1	1	1	1	28	24	510	300	1	35
11	1	1	1	1	31	28	511	300	1	35
12	1	1	1	1	28	24	511	300	1	35
13	1	1	1	1	31	28	511	300	1	35
14	1	1	1	1	28	24	511	300	1	35
15	1	1	1	1	28	24	512	300	1	35
0	1	1	1	1	28	24	512	300	1	35
1	1	1	1	1	31	28	513	300	1	35
2	1	1	1	1	28	24	513	300	1	35
3	1	1	1	1	28	28	515	300	1	35
4	1	1	1	1	28	24	516	300	1	35
5	1	1	1	1	35	31	519	300	1	35
6	1	1	1	1	35	31	519	300	1	35
7	1	1	1	1	28	24	519	300	1	35
8	1	1	1	1	28	24	521	300	1	35
9	1	1	1	1	28	24	524	300	1	35
10	1	1	1	1	28	24	526	300	1	35
11	1	1	1	1	31	28	527	300	1	35
12	1	1	1	1	28	24	527	300	1	35
13	1	1	1	1	28	24	527	300	1	35
14	1	1	1	1	24	24	527	300	1	35
15	1	1	1	1	27	19	527	300	1	35
0	1	1	1	1	28	24	527	300	1	35
1	1	1	1	1	35	31	527	300	1	35
2	1	1	1	1	28	24	527	300	1	35
3	1	1	1	1	24	24	527	300	1	35
4	1	1	1	1	28	24	527	300	1	35
5	1	1	1	1	35	31	527	300	1	35
6	1	1	1	1	28	24	529	300	1	35
7	1	1	1	1	24	24	531	300	1	35
8	1	1	1	1	31	28	531	300	1	35
9	1	1	1	1	28	24	536	300	1	35
10	1	1	1	1	28	24	536	300	1	35
11	1	1	1	1	24	24	537	300	1	35
12	1	1	1	1	31	28	540	300	1	35
13	1	1	1	1	31	28	543	300	1	35
14	1	1	1	1	24	24	543	300	1	35
15	1	1	1	1	35	31	547	300	1	35
0	1	1	1	1	28	24	550	300	1	35
1	1	1	1	1	27	24	551	300	1	35
2	1	1	1	1	28	24	551	300	1	35
3	1	1	1	1	27	24	551	300	1	35
4	1	1	1	1	27	24	551	300	1	35
5	1	1	1	1	27	24	551	300	1	35
6	1	1	1	1	35	31	551	300	1	35
7	1	1	1	1	31	27	551	300	1	35
8	1	1	1	1	27	24	551	300	1	35
9	1	1	1	1	25	24	550	300	1	35
10	1	1	1	1	25	24	547	300	1	35
11	1	1	1	1	31	25	547	300	1	35
12	1	1	1	1	25	24	545	300	1	35
13	1	1	1	1	27	24	543	300	1	35
14	1	1	1	1	24	24	545	300	1	35
15	1	1	1	1	31	25	547	300	1	35
0	1	1	1	1	25	24	547	300	1	35
1	1	1	1	1	35	31	551	300	1	35
2	1	1	1	1	25	24	551	300	1	35
3	1	1	1	1	31	25	556	300	1	35
4	1	1	1	1	27	24	560	300	1	35
5	1	1	1	1	28	24	561	300	1	35
6	1	1	1	1	25	24	568	300	1	35
7	1	1	1	1	31	25	569	300	1	35
8	1	1	1	1	35	31	574	300	1	35
9	1	1	1	1	28	24	575	300	1	35
10	1	1	1	1	35	31	579	300	1	35
11	1	1	1	1	24	24	583	300	1	35
12	1	1	1	1	28	24	585	300	1	35
13	1	1	1	1	24	24	588	300	1	35
14	1	1	1	1	31	28	591	300	1	35
15	1	1	1	1	28	24	591	300	1	35
0	1	1	1	1	28	24	591	300	1	35
1	1	1	1	1	28	24	591	300	1	35
2	1	1	1	1	28	24	591	300	1	35
3	1	1	1	1	24	24	591	300	1	35
4	1	1	1	1	28	24	591	300	1	35
5	1	1	1	1	31	28	591	300	1	35
6	1	1	1	1	35	31	591	300	1	35
7	1	1	1	1	28	24	591	300	1	35
8	1	1	1	1	28	24	591	300	1	35
9	1	1	1	1	28	24	591	300	1	35
10	1	1	1	1	28	24	591	300	1	35
11	1	1	1	1	31	28	591	300	1	35
12	1	1	1	1	28	24	595	300	1	35
13	1	1	1	1	35	31	600	300	1	35
14	1	1	1	1	24	24	600	300	1	35
15	1	1	1	1	35	31	604	300	1	35
0	1	1	1	1	28	24	608	300	1	35
1	1	1	1	1	31	28	611	300	1	35
2	1	1	1	1	28	24	615	300	1	35
3	1	1	1	1	28	24	620	300	1	35
4	1	1	1	1	28	24	622	300	1	35
5	1	1	1	1	28	24	624	300	1	35
6	1	1	1	1	27	24	624	300	1	35
7	1	1	1	1	31	28	622	300	1	35
8	1	1	1	1	27	24	620	300	1	35
9	1	1	1	1	35	31	615	300	1	35
10	1	1	1	1	28	24	614	300	1	35
11	1	1	1	1	25	24	608	300	1	35
12	1	1	1	1	24	24	608	300	1	35
13	1	1	1	1	28	24	601	300	1	35
14	1	1	1	1	25	24	600	300	1	35
15	1	1	1	1	25	24	598	300	1	35
0	1	1	1	1	31	28	595	300	1	35
1	1	1	1	1	28	24	595	300	1	35
2	1	1	1	1	28	24	600	300	1	35
3	1	1	1	1	31	28	600	300	1	35
4	1	1	1	1	28	24	601	300	1	35
5	1	1	1	1	31	28	606	300	1	35
6	1	1	1	1	24	24	608	300	1	35
7	1	1	1	1	28	24	611	300	1	35
8	1	1	1	1	28	24	614	300	1	35
9	1	1	1	1	31	28	615	300	1	35
10	1	1	1	1	28	24	615	300	1	35
11	1	1	1	1	28	24	614	300	1	35
12	1	1	1	1	24	24	609	300	1	35
13	1	1	1	1	31	28	608	300	1	35
14	1	1	1	1	24	24	600	300	1	35
15	1	1	1	1	35	31	595	300	1	35
0	1	1	1	1	28	24	588	300	1	35
1	1	1	1	1	31	28	579	300	1	35
2	1	1	1	1	28	24	574	300	1	35
3	1	1	1	1	31	24	568	300	1	35
4	1	1	1	1	31	28	560	300	1	35
5	1	1	1	1	31	28	551	300	1	35
6	1	1	1	1	31	28	543	300	1	35
7	1	1	1	1	31	28	540	300	1	35
8	1	1	1	1	31	28	536	300	1	35
9	1	1	1	1	31	27	532	300	1	35
10	1	1	1	1	28	24	529	300	1	35
11	1	1	1	1	31	28	527	300	1	35
12	1	1	1	1	31	28	527	300	1	35
13	1	1	1	1	28	24	527	300	1	35
14	1	1	1	1	31	28	526	300	1	35
15	1	1	1	1	27	24	526	300	1	35
0	1	1	1	1	31	28	526	300	1	35
1	1	1	1	1	28	24	524	300	1	35
2	1	1	1	1	31	28	524	300	1	35
3	1	1	1	1	22	24	524	300	1	35
4	1	1	1	1	28	24	519	300	1	35
5	1	1	1	1	28	24	519	300	1	35
6	1	1	1	1	31	28	518	300	1	35
7	1	1	1	1	28	24	515	300	1	35
8	1	1	1	1	31	28	512	300	1	35
9	1	1	1	1	31	28	511	300	1	35
10	1	1	1	1	28	24	508	300	1	35
11	1	1	1	1	28	24	504	300	1	35
12	1	1	1	1	28	24	504	300	1	35
13	1	1	1	1	31	28	499	300	1	35
14	1	1	1	1	28	28	496	300	1	35
15	1	1	1	1	31	28	496	300	1	35
0	1	1	1	1	31	28	492	300	1	35
1	1	1	1	1	35	31	487	300	1	35
2	1	1	1	1	27	24	487	300	1	35
3	1	1	1	1	28	24	487	300	1	35
4	1	1	1	1	28	24	483	300	1	35
5	1	1	1	1	28	24	483	300	1	35
6	1	1	1	1	28	24	481	300	1	35
7	1	1	1	1	27	24	480	300	1	35
8	1	1	1	1	28	24	480	300	1	35
9	1	1	1	1	25	24	478	300	1	35
10	1	1	1	1	25	24	476	300	1	35
11	1	1	1	1	27	24	476	300	1	35
12	1	1	1	1	28	24	472	300	1	35
13	1	1	1	1	24	24	472	300	1	35
14	1	1	1	1	28	24	472	300	1	35
15	1	1	1	1	27	24	470	300	1	35
0	1	1	1	1	28	24	467	300	1	35
1	1	1	1	1	31	28	467	300	1	35
2	1	1	1	1	31	28	465	300	1	35
3	1	1	1	1	19	25	465	300	1	35
4	1	1	1	1	28	24	463	300	1	35
5	1	1	1	1	24	24	463	300	1	35
6	1	1	1	1	35	31	463	300	1	35
7	1	1	1	1	24	24	463	300	1	35
8	1	1	1	1	28	24	463	300	1	35
9	1	1	1	1	27	24	463	300	1	35
10	1	1	1	1	27	24	463	300	1	35
11	1	1	1	1	27	24	463	300	1	35
12	1	1	1	1	27	24	463	300	1	35
13	1	1	1	1	24	24	463	300	1	35
14	1	1	1	1	25	24	463	300	1	35
15	1	1	1	1	27	24	463	300	1	35
0	1	1	1	1	28	24	463	300	1	35
1	1	1	1	1	31	28	463	300	1	35
2	1	1	1	1	28	24	463	300	1	35
3	1	1	1	1	28	24	463	300	1	35
4	1	1	1	1	31	28	463	300	1	35
5	1	1	1	1	31	28	465	300	1	35
6	1	1	1	1	28	24	467	300	1	35
7	1	1	1	1	31	28	467	300	1	35
8	1	1	1	1	28	24	472	300	1	35
9	1	1	1	1	25	24	472	300	1	35
10	1	1	1	1	24	24	472	300	1	35
11	1	1	1	1	31	28	476	300	1	35
12	1	1	1	1	35	31	476	300	1	35
13	1	1	1	1	31	28	478	300	1	35
14	1	1	1	1	25	24	480	300	1	35
15	1	1	1	1	28	24	480	300	1	35
0	1	1	1	1	25	24	480	300	1	35
1	1	1	1	1	27	24	480	300	1	35
2	1	1	1	1	28	24	480	300	1	35
3	1	1	1	1	23	24	480	300	1	35
4	1	1	1	1	27	24	480	300	1	35
5	1	1	1	1	28	24	480	300	1	35
6	1	1	1	1	31	28	478	300	1	35
7	1	1	1	1	28	24	476	300	1	35
8	1	1	1	1	28	24	476	300	1	35
9	1	1	1	1	28	24	472	300	1	35
10	1	1	1	1	28	24	472	300	1	35
11	1	1	1	1	28	24	467	300	1	35
12	1	1	1	1	28	24	467	300	1	35
13	1	1	1	1	28	24	463	300	1	35
14	1	1	1	1	22	24	463	300	1	35
15	1	1	1	1	28	24	463	300	1	35
0	1	1	1	1	31	28	462	300	1	35
1	1	1	1	1	35	31	462	300	1	35
2	1	1	1	1	35	31	462	300	1	35
3	1	1	1	1	27	24	463	300	1	35
4	1	1	1	1	31	28	463	300	1	35
5	1	1	1	1	31	28	463	300	1	35
6	1	1	1	1	28	24	463	300	1	35
7	1	1	1	1	28	19	465	300	1	35
8	1	1	1	1	28	24	463	300	1	35
9	1	1	1	1	28	24	463	300	1	35
10	1	1	1	1	24	24	463	300	1	35
11	1	1	1	1	31	28	460	300	1	35
12	1	1	1	1	28	24	455	300	1	35
13	1	1	1	1	28	24	451	300	1	35
14	1	1	1	1	28	24	448	300	1	35
15	1	1	1	1	35	31	444	300	1	35
0	1	1	1	1	28	24	440	300	1	35
1	1	1	1	1	31	28	435	300	1	35
2	1	1	1	1	31	28	432	300	1	35
3	1	1	1	1	24	25	428	300	1	35
4	1	1	1	1	31	28	428	300	1	35
5	1	1	1	1	28	24	425	300	1	35
6	1	1	1	1	28	24	428	300	1	35
7	1	1	1	1	31	28	428	300	1	35
8	1	1	1	1	28	24	432	300	1	35
9	1	1	1	1	28	24	433	300	1	35
10	1	1	1	1	31	28	438	300	1	35
11	1	1	1	1	28	24	440	300	1	35
12	1	1	1	1	28	24	448	300	1	35
13	1	1	1	1	28	24	448	300	1	35
14	1	1	1	1	24	24	451	300	1	35
15	1	1	1	1	35	31	455	300	1	35
0	1	1	1	1	28	24	460	300	1	35
1	1	1	1	1	31	28	462	300	1	35
2	1	1	1	1	31	28	463	300	1	35
3	1	1	1	1	28	24	463	300	1	35
4	1	1	1	1	31	28	463	300	1	35
5	1	1	1	1	35	31	465	300	1	35
6	1	1	1	1	28	24	467	300	1	35
7	1	1	1	1	24	24	467	300	1	35
8	1	1	1	1	28	24	467	300	1	35
9	1	1	1	1	35	31	467	300	1	35
10	1	1	1	1	28	24	467	300	1	35
11	1	1	1	1	24	24	467	300	1	35
12	1	1	1	1	28	24	467	300	1	35
13	1	1	1	1	31	28	467	300	1	35
14	1	1	1	1	28	24	467	300	1	35
15	1	1	1	1	31	28	467	300	1	35
0	1	1	1	1	28	24	468	300	1	35
1	1	1	1	1	31	28	472	300	1	35
2	1	1	1	1	28	24	472	300	1	35
3	1	1	1	1	28	24	472	300	1	35
4	1	1	1	1	28	24	473	300	1	35
5	1	1	1	1	28	24	476	300	1	35
6	1	1	1	1	24	24	480	300	1	35
7	1	1	1	1	28	24	480	300	1	35
8	1	1	1	1	28	24	480	300	1	35
9	1	1	1	1	28	24	480	300	1	35
10	1	1	1	1	28	24	481	300	1	35
11	1	1	1	1	31	28	481	300	1	35
12	1	1	1	1	28	24	481	300	1	35
13	1	1	1	1	28	24	480	300	1	35
14	1	1	1	1	28	28	480	300	1	35
15	1	1	1	1	31	28	480	300	1	35
0	1	1	1	1	28	24	476	300	1	35
1	1	1	1	1	31	28	476	300	1	35
2	1	1	1	1	28	24	473	300	1	35
3	1	1	1	1	31	28	472	300	1	35
4	1	1	1	1	24	24	472	300	1	35
5	1	1	1	1	35	31	472	300	1	35
6	1	1	1	1	28	24	472	300	1	35
7	1	1	1	1	31	28	473	300	1	35
8	1	1	1	1	31	28	476	300	1	35
9	1	1	1	1	27	24	480	300	1	35
10	1	1	1	1	35	31	480	300	1	35
11	1	1	1	1	31	28	483	300	1	35
12	1	1	1	1	28	24	487	300	1	35
13	1	1	1	1	27	24	492	300	1	35
14	1	1	1	1	31	28	496	300	1	35
15	1	1	1	1	27	24	497	300	1	35
0	1	1	1	1	27	24	502	300	1	35
1	1	1	1	1	27	24	504	300	1	35
2	1	1	1	1	31	28	504	300	1	35
3	1	1	1	1	24	24	508	300	1	35
4	1	1	1	1	27	24	508	300	1	35
5	1	1	1	1	25	24	505	300	1	35
6	1	1	1	1	31	28	504	300	1	35
7	1	1	1	1	27	24	504	300	1	35
8	1	1	1	1	31	28	497	300	1	35
9	1	1	1	1	28	24	496	300	1	35
10	1	1	1	1	28	24	487	300	1	35
11	1	1	1	1	31	27	483	300	1	35
12	1	1	1	1	27	24	480	300	1	35
13	1	1	1	1	27	24	473	300	1	35
14	1	1	1	1	30	28	470	300	1	35
15	1	1	1	1	31	27	463	300	1	35
0	1	1	1	1	28	24	460	300	1	35
1	1	1	1	1	28	24	455	300	1	35
2	1	1	1	1	28	24	455	300	1	35
3	1	1	1	1	35	31	451	300	1	35
4	1	1	1	1	28	24	451	300	1	35
5	1	1	1	1	31	28	449	300	1	35
6	1	1	1	1	28	24	449	300	1	35
7	1	1	1	1	28	24	451	300	1	35
8	1	1	1	1	28	24	451	300	1	35
9	1	1	1	1	25	24	454	300	1	35
10	1	1	1	1	28	24	455	300	1	35
11	1	1	1	1	35	28	457	300	1	35
12	1	1	1	1	28	24	462	300	1	35
13	1	1	1	1	28	24	463	300	1	35
14	1	1	1	1	31	28	465	300	1	35
15	1	1	1	1	28	24	467	300	1	35
0	1	1	1	1	31	28	472	300	1	35
1	1	1	1	1	28	24	472	300	1	35
2	1	1	1	1	28	24	476	300	1	35
3	1	1	1	1	28	24	476	300	1	35
4	1	1	1	1	31	28	478	300	1	35
5	1	1	1	1	28	24	480	300	1	35
6	1	1	1	1	35	31	480	300	1	35
7	1	1	1	1	28	24	480	300	1	35
8	1	1	1	1	27	24	480	300	1	35
9	1	1	1	1	31	28	480	300	1	35
10	1	1	1	1	27	24	480	300	1	35
11	1	1	1	1	31	28	480	300	1	35
12	1	1	1	1	28	24	480	300	1	35
13	1	1	1	1	27	24	480	300	1	35
14	1	1	1	1	24	24	480	300	1	35
15	1	1	1	1	35	31	480	300	1	35
0	1	1	1	1	31	28	480	300	1	35
1	1	1	1	1	35	31	480	300	1	35
2	1	1	1	1	31	28	480	300	1	35
3	1	1	1	1	27	24	480	300	1	35
4	1	1	1	1	31	27	480	300	1	35
5	1	1	1	1	27	24	480	300	1	35
6	1	1	1	1	28	24	480	300	1	35
7	1	1	1	1	31	28	480	300	1	35
8	1	1	1	1	27	24	480	300	1	35
9	1	1	1	1	35	31	480	300	1	35
10	1	1	1	1	28	24	480	300	1	35
11	1	1	1	1	28	24	480	300	1	35
12	1	1	1	1	31	28	481	300	1	35
13	1	1	1	1	31	28	481	300	1	35
14	1	1	1	1	28	24	483	300	1	35
15	1	1	1	1	27	24	483	300	1	35
0	1	1	1	1	28	24	483	300	1	35
1	1	1	1	1	24	24	486	300	1	35
2	1	1	1	1	35	31	486	300	1	35
3	1	1	1	1	24	24	487	300	1	35
4	1	1	1	1	27	24	487	300	1	35
5	1	1	1	1	31	28	487	300	1	35
6	1	1	1	1	24	24	487	300	1	35
7	1	1	1	1	31	28	487	300	1	35
8	1	1	1	1	28	24	487	300	1	35
9	1	1	1	1	31	27	487	300	1	35
10	1	1	1	1	28	24	487	300	1	35
11	1	1	1	1	31	28	487	300	1	35
12	1	1	1	1	27	24	487	300	1	35
13	1	1	1	1	28	24	487	300	1	35
14	1	1	1	1	30	28	486	300	1	35
15	1	1	1	1	28	24	486	300	1	35
0	1	1	1	1	27	24	486	300	1	35
1	1	1	1	1	35	31	486	300	1	35
2	1	1	1	1	31	28	486	300	1	35
3	1	1	1	1	24	24	487	300	1	35
4	1	1	1	1	28	24	487	300	1	35
5	1	1	1	1	35	31	487	300	1	35
6	1	1	1	1	28	24	487	300	1	35
7	1	1	1	1	35	31	492	300	1	35
8	1	1	1	1	31	28	492	300	1	35
9	1	1	1	1	35	31	495	300	1	35
10	1	1	1	1	27	24	496	300	1	35
11	1	1	1	1	35	31	497	300	1	35
12	1	1	1	1	35	31	499	300	1	35
13	1	1	1	1	31	28	504	300	1	35
14	1	1	1	1	27	24	504	300	1	35
15	1	1	1	1	27	24	505	300	1	35
0	1	1	1	1	28	24	508	300	1	35
1	1	1	1	1	27	24	510	300	1	35
2	1	1	1	1	28	24	511	300	1	35
3	1	1	1	1	31	28	512	300	1	35
4	1	1	1	1	31	28	513	300	1	35
5	1	1	1	1	31	28	513	300	1	35
6	1	1	1	1	31	28	515	300	1	35
7	1	1	1	1	28	24	515	300	1	35
8	1	1	1	1	28	24	515	300	1	35
9	1	1	1	1	28	24	513	300	1	35
10	1	1	1	1	28	24	511	300	1	35
11	1	1	1	1	24	24	510	300	1	35
12	1	1	1	1	28	24	505	300	1	35
13	1	1	1	1	28	24	504	300	1	35
14	1	1	1	1	25	24	497	300	1	35
15	1	1	1	1	28	24	494	300	1	35
0	1	1	1	1	27	24	487	300	1	35
1	1	1	1	1	31	28	486	300	1	35
2	1	1	1	1	24	24	481	300	1	35
3	1	1	1	1	31	28	480	300	1	35
4	1	1	1	1	24	24	476	300	1	35
5	1	1	1	1	28	24	473	300	1	35
6	1	1	1	1	28	24	472	300	1	35
7	1	1	1	1	28	24	472	300	1	35
8	1	1	1	1	31	28	472	300	1	35
9	1	1	1	1	28	24	473	300	1	35
10	1	1	1	1	31	28	473	300	1	35
11	1	1	1	1	35	31	476	300	1	35
12	1	1	1	1	28	24	476	300	1	35
13	1	1	1	1	28	24	480	300	1	35
14	1	1	1	1	28	24	480	300	1	35
15	1	1	1	1	28	19	481	300	1	35
0	1	1	1	1	28	24	483	300	1	35
1	1	1	1	1	31	28	486	300	1	35
2	1	1	1	1	28	24	487	300	1	35
3	1	1	1	1	22	24	487	300	1	35
4	1	1	1	1	28	24	492	300	1	35
5	1	1	1	1	24	24	494	300	1	35
6	1	1	1	1	35	31	496	300	1	35
7	1	1	1	1	35	31	496	300	1	35
8	1	1	1	1	28	24	499	300	1	35
9	1	1	1	1	28	24	499	300	1	35
10	1	1	1	1	31	28	504	300	1	35
11	1	1	1	1	28	24	504	300	1	35
12	1	1	1	1	28	24	504	300	1	35
13	1	1	1	1	25	24	504	300	1	35
14	1	1	1	1	23	24	505	300	1	35
15	1	1	1	1	27	24	508	300	1	35
0	1	1	1	1	28	24	508	300	1	35
1	1	1	1	1	31	25	510	300	1	35
2	1	1	1	1	25	24	511	300	1	35
3	1	1	1	1	27	24	511	300	1	35
4	1	1	1	1	25	24	512	300	1	35
5	1	1	1	1	27	24	513	300	1	35
6	1	1	1	1	28	24	513	300	1	35
7	1	1	1	1	25	24	515	300	1	35
8	1	1	1	1	28	24	515	300	1	35
9	1	1	1	1	31	28	515	300	1	35
10	1	1	1	1	27	24	513	300	1	35
11	1	1	1	1	31	28	512	300	1	35
12	1	1	1	1	27	24	511	300	1	35
13	1	1	1	1	27	24	510	300	1	35
14	1	1	1	1	31	28	508	300	1	35
15	1	1	1	1	31	28	504	300	1	35
0	1	1	1	1	28	24	504	300	1	35
1	1	1	1	1	27	24	499	300	1	35
2	1	1	1	1	31	28	496	300	1	35
3	1	1	1	1	24	28	494	300	1	35
4	1	1	1	1	31	28	492	300	1	35
5	1	1	1	1	28	24	487	300	1	35
6	1	1	1	1	24	24	487	300	1	35
7	1	1	1	1	28	24	486	300	1	35
8	1	1	1	1	28	24	483	300	1	35
9	1	1	1	1	31	28	483	300	1	35
10	1	1	1	1	28	24	483	300	1	35
11	1	1	1	1	31	28	483	300	1	35
12	1	1	1	1	28	24	483	300	1	35
13	1	1	1	1	28	24	483	300	1	35
14	1	1	1	1	25	24	486	300	1	35
15	1	1	1	1	28	24	486	300	1	35
0	1	1	1	1	31	28	487	300	1	35
1	1	1	1	1	35	31	487	300	1	35
2	1	1	1	1	28	24	487	300	1	35
3	1	1	1	1	31	28	487	300	1	35
4	1	1	1	1	31	28	487	300	1	35
5	1	1	1	1	31	28	487	300	1	35
6	1	1	1	1	31	28	487	300	1	35
7	1	1	1	1	31	28	487	300	1	35
8	1	1	1	1	28	24	489	300	1	35
9	1	1	1	1	27	24	492	300	1	35
10	1	1	1	1	28	24	492	300	1	35
11	1	1	1	1	35	31	494	300	1	35
12	1	1	1	1	28	24	496	300	1	35
13	1	1	1	1	28	24	496	300	1	35
14	1	1	1	1	35	31	497	300	1	35
15	1	1	1	1	27	24	499	300	1	35
0	1	1	1	1	24	24	502	300	1	35
1	1	1	1	1	28	24	504	300	1	35
2	1	1	1	1	35	31	504	300	1	35
3	1	1	1	1	24	24	504	300	1	35
4	1	1	1	1	31	28	504	300	1	35
5	1	1	1	1	28	24	502	300	1	35
6	1	1	1	1	35	31	499	300	1	35
7	1	1	1	1	31	28	499	300	1	35
8	1	1	1	1	28	24	497	300	1	35
9	1	1	1	1	28	24	496	300	1	35
10	1	1	1	1	28	24	496	300	1	35
11	1	1	1	1	28	24	496	300	1	35
12	1	1	1	1	28	24	496	300	1	35
13	1	1	1	1	24	24	496	300	1	35
14	1	1	1	1	24	24	497	300	1	35
15	1	1	1	1	28	24	499	300	1	35
0	1	1	1	1	28	24	499	300	1	35
1	1	1	1	1	31	28	499	300	1	35
2	1	1	1	1	35	31	499	300	1	35
3	1	1	1	1	35	31	496	300	1	35
4	1	1	1	1	31	28	496	300	1	35
5	1	1	1	1	28	24	492	300	1	35
6	1	1	1	1	31	28	487	300	1	35
7	1	1	1	1	35	31	483	300	1	35
8	1	1	1	1	31	28	480	300	1	35
9	1	1	1	1	31	28	476	300	1	35
10	1	1	1	1	31	28	472	300	1	35
11	1	1	1	1	35	31	472	300	1	35
12	1	1	1	1	28	24	472	300	1	35
13	1	1	1	1	24	24	472	300	1	35
14	1	1	1	1	28	24	472	300	1	35
15	1	1	1	1	28	24	472	300	1	35
0	1	1	1	1	28	24	472	300	1	35
1	1	1	1	1	31	28	476	300	1	35
2	1	1	1	1	28	24	478	300	1	35
3	1	1	1	1	24	24	480	300	1	35
4	1	1	1	1	27	24	480	300	1	35
5	1	1	1	1	28	24	480	300	1	35
6	1	1	1	1	35	31	480	300	1	35
7	1	1	1	1	31	28	480	300	1	35
8	1	1	1	1	31	28	478	300	1	35
9	1	1	1	1	28	24	476	300	1	35
10	1	1	1	1	31	28	472	300	1	35
11	1	1	1	1	28	24	467	300	1	35
12	1	1	1	1	28	24	463	300	1	35
13	1	1	1	1	28	24	460	300	1	35
14	1	1	1	1	24	24	455	300	1	35
15	1	1	1	1	28	24	451	300	1	35
0	1	1	1	1	31	28	448	300	1	35
1	1	1	1	1	31	28	444	300	1	35
2	1	1	1	1	28	24	440	300	1	35
3	1	1	1	1	24	24	440	300	1	35
4	1	1	1	1	28	24	435	300	1	35
5	1	1	1	1	28	24	432	300	1	35
6	1	1	1	1	31	28	430	300	1	35
7	1	1	1	1	28	24	428	300	1	35
8	1	1	1	1	28	24	428	300	1	35
9	1	1	1	1	31	28	425	300	1	35
10	1	1	1	1	24	24	425	300	1	35
11	1	1	1	1	35	31	428	300	1	35
12	1	1	1	1	35	31	430	300	1	35
13	1	1	1	1	31	28	432	300	1	35
14	1	1	1	1	31	28	435	300	1	35
15	1	1	1	1	28	24	440	300	1	35
0	1	1	1	1	31	28	448	300	1	35
1	1	1	1	1	28	24	455	300	1	35
2	1	1	1	1	28	24	467	300	1	35
3	1	1	1	1	28	24	480	300	1	35
4	1	1	1	1	31	28	496	300	1	35
5	1	1	1	1	28	24	515	300	1	35
6	1	1	1	1	35	31	536	300	1	35
7	1	1	1	1	28	24	561	300	1	35
8	1	1	1	1	31	28	590	300	1	35
9	1	1	1	1	28	24	620	300	1	35
10	1	1	1	1	31	28	652	300	1	35
11	1	1	1	1	28	24	688	300	1	35
12	1	1	1	1	28	24	723	300	1	35
13	1	1	1	1	31	28	760	300	1	35
14	1	1	1	1	24	24	799	300	1	35
15	1	1	1	1	28	24	835	300	1	35
0	1	1	1	1	28	24	871	300	1	35
1	1	1	1	1	31	28	903	300	1	35
2	1	1	1	1	35	31	934	300	1	35
3	1	1	1	1	31	28	961	300	1	35
4	1	1	1	1	27	24	984	300	1	35
5	1	1	1	1	31	27	1004	300	1	35
6	1	1	1	1	27	24	1016	300	1	35
7	1	1	1	1	27	24	1020	300	1	35
8	1	1	1	1	25	24	1020	300	1	35
9	1	1	1	1	25	24	1020	300	1	35
10	1	1	1	1	25	24	1010	300	1	35
11	1	1	1	1	31	27	995	300	1	35
12	1	1	1	1	25	24	975	300	1	35
13	1	1	1	1	25	24	952	300	1	35
14	1	1	1	1	25	24	924	300	1	35
15	1	1	1	1	25	24	889	300	1	35
0	1	1	1	1	25	24	856	300	1	35
1	1	1	1	1	28	24	816	300	1	35
2	1	1	1	1	28	24	775	300	1	35
3	1	1	1	1	24	24	736	300	1	35
4	1	1	1	1	35	31	691	300	1	35
5	1	1	1	1	28	24	647	300	1	35
6	1	1	1	1	28	24	601	300	1	35
7	1	1	1	1	28	24	558	300	1	35
8	1	1	1	1	31	28	513	300	1	35
9	1	1	1	1	31	28	472	300	1	35
10	1	1	1	1	24	24	432	300	1	35
11	1	1	1	1	28	24	398	300	1	35
12	1	1	1	1	28	24	368	300	1	35
13	1	1	1	1	28	24	342	300	1	35
14	1	1	1	1	24	24	319	300	1	35
15	1	1	1	1	31	28	305	300	1	35
0	1	1	1	1	31	28	295	300	1	35
1	1	1	1	1	31	28	291	300	1	35
2	1	1	1	1	31	28	289	300	1	35
3	1	1	1	1	31	28	294	300	1	35
4	1	1	1	1	35	31	300	300	1	35
5	1	1	1	1	28	24	308	300	1	35
6	1	1	1	1	24	24	319	300	1	35
7	1	1	1	1	31	28	332	300	1	35
8	1	1	1	1	28	24	344	300	1	35
9	1	1	1	1	31	28	358	300	1	35
10	1	1	1	1	28	24	369	300	1	35
11	1	1	1	1	35	31	384	300	1	35
12	1	1	1	1	28	24	391	300	1	35
13	1	1	1	1	28	24	403	300	1	35
14	1	1	1	1	27	24	415	300	1	35
15	1	1	1	1	28	24	423	300	1	35
0	1	1	1	1	28	24	432	300	1	35
1	1	1	1	1	28	24	440	300	1	35
2	1	1	1	1	28	24	448	300	1	35
3	1	1	1	1	28	24	451	300	1	35
4	1	1	1	1	28	24	455	300	1	35
5	1	1	1	1	27	24	460	300	1	35
6	1	1	1	1	31	28	462	300	1	35
7	1	1	1	1	28	19	463	300	1	35
8	1	1	1	1	27	24	463	300	1	35
9	1	1	1	1	25	24	463	300	1	35
10	1	1	1	1	27	24	465	300	1	35
11	1	1	1	1	27	24	465	300	1	35
12	1	1	1	1	31	28	465	300	1	35
13	1	1	1	1	27	24	465	300	1	35
14	1	1	1	1	24	24	467	300	1	35
15	1	1	1	1	28	24	467	300	1	35
0	1	1	1	1	27	24	467	300	1	35
1	1	1	1	1	27	24	468	300	1	35
2	1	1	1	1	27	24	472	300	1	35
3	1	1	1	1	27	24	472	300	1	35
4	1	1	1	1	28	24	472	300	1	35
5	1	1	1	1	28	24	476	300	1	35
6	1	1	1	1	31	28	480	300	1	35
7	1	1	1	1	28	24	481	300	1	35
8	1	1	1	1	28	24	483	300	1	35
9	1	1	1	1	30	28	487	300	1	35
10	1	1	1	1	28	24	492	300	1	35
11	1	1	1	1	35	31	496	300	1	35
12	1	1	1	1	27	24	502	300	1	35
13	1	1	1	1	28	24	505	300	1	35
14	1	1	1	1	28	24	511	300	1	35
15	1	1	1	1	28	24	515	300	1	35
0	1	1	1	1	31	28	519	300	1	35
1	1	1	1	1	28	24	524	300	1	35
2	1	1	1	1	35	31	526	300	1	35
3	1	1	1	1	25	28	527	300	1	35
4	1	1	1	1	24	24	527	300	1	35
5	1	1	1	1	28	24	527	300	1	35
6	1	1	1	1	28	24	527	300	1	35
7	1	1	1	1	31	28	527	300	1	35
8	1	1	1	1	28	24	524	300	1	35
9	1	1	1	1	28	24	519	300	1	35
10	1	1	1	1	27	24	515	300	1	35
11	1	1	1	1	35	31	511	300	1	35
12	1	1	1	1	28	24	504	300	1	35
13	1	1	1	1	24	24	499	300	1	35
14	1	1	1	1	33	31	496	300	1	35
15	1	1	1	1	28	24	492	300	1	35
0	1	1	1	1	28	24	487	300	1	35
1	1	1	1	1	31	28	487	300	1	35
2	1	1	1	1	31	28	483	300	1	35
3	1	1	1	1	28	24	483	300	1	35
4	1	1	1	1	28	24	483	300	1	35
5	1	1	1	1	28	24	483	300	1	35
6	1	1	1	1	28	24	483	300	1	35
7	1	1	1	1	28	24	487	300	1	35
8	1	1	1	1	31	28	487	300	1	35
9	1	1	1	1	31	28	492	300	1	35
10	1	1	1	1	28	24	496	300	1	35
11	1	1	1	1	24	24	499	300	1	35
12	1	1	1	1	28	24	504	300	1	35
13	1	1	1	1	31	28	508	300	1	35
14	1	1	1	1	31	28	511	300	1	35
15	1	1	1	1	27	24	515	300	1	35
0	1	1	1	1	28	24	519	300	1	35
1	1	1	1	1	28	24	519	300	1	35
2	1	1	1	1	28	24	524	300	1	35
3	1	1	1	1	28	24	527	300	1	35
4	1	1	1	1	28	24	527	300	1	35
5	1	1	1	1	28	24	529	300	1	35
6	1	1	1	1	35	31	531	300	1	35
7	1	1	1	1	35	31	531	300	1	35
8	1	1	1	1	27	24	534	300	1	35
9	1	1	1	1	35	31	536	300	1	35
10	1	1	1	1	31	27	536	300	1	35
11	1	1	1	1	28	24	536	300	1	35
12	1	1	1	1	28	24	536	300	1	35
13	1	1	1	1	27	24	536	300	1	35
14	1	1	1	1	28	28	536	300	1	35
15	1	1	1	1	31	25	536	300	1	35
0	1	1	1	1	31	25	536	300	1	35
1	1	1	1	1	35	31	536	300	1	35
2	1	1	1	1	25	24	536	297	1	35
3	1	1	1	1	25	24	536	297	1	35
4	1	1	1	1	25	24	536	300	1	35
5	1	1	1	1	24	24	536	297	1	35
6	1	1	1	1	31	25	540	300	1	35
7	1	1	1	1	25	24	543	300	1	35
8	1	1	1	1	27	24	547	300	1	35
9	1	1	1	1	25	24	553	300	1	35
10	1	1	1	1	28	24	560	300	1	35
11	1	1	1	1	31	28	568	300	1	35
12	1	1	1	1	28	24	575	300	1	35
13	1	1	1	1	28	24	579	300	1	35
14	1	1	1	1	31	28	583	300	1	35
15	1	1	1	1	28	24	588	300	1	35
0	1	1	1	1	28	24	588	300	1	35
1	1	1	1	1	28	24	585	300	1	35
2	1	1	1	1	28	24	583	300	1	35
3	1	1	1	1	25	28	575	300	1	35
4	1	1	1	1	31	28	568	300	1	35
5	1	1	1	1	28	24	558	300	1	35
6	1	1	1	1	35	31	547	300	1	35
7	1	1	1	1	31	28	536	300	1	35
8	1	1	1	1	31	28	527	300	1	35
9	1	1	1	1	35	31	518	300	1	35
10	1	1	1	1	31	28	511	300	1	35
11	1	1	1	1	28	19	504	300	1	35
12	1	1	1	1	28	24	499	300	1	35
13	1	1	1	1	24	24	499	300	1	35
14	1	1	1	1	24	24	499	300	1	35
15	1	1	1	1	31	28	504	300	1	35
0	1	1	1	1	28	24	508	300	1	35
1	1	1	1	1	35	31	512	300	1	35
2	1	1	1	1	28	24	519	300	1	35
3	1	1	1	1	28	24	527	300	1	35
4	1	1	1	1	24	24	537	300	1	35
5	1	1	1	1	28	24	547	300	1	35
6	1	1	1	1	24	24	556	300	1	35
7	1	1	1	1	35	31	563	300	1	35
8	1	1	1	1	28	24	572	300	1	35
9	1	1	1	1	24	24	575	300	1	35
10	1	1	1	1	25	24	582	300	1	35
11	1	1	1	1	35	31	583	300	1	35
12	1	1	1	1	27	24	585	300	1	35
13	1	1	1	1	28	24	583	300	1	35
14	1	1	1	1	35	31	583	300	1	35
15	1	1	1	1	27	24	583	300	1	35
0	1	1	1	1	25	24	575	300	1	35
1	1	1	1	1	28	24	575	300	1	35
2	1	1	1	1	35	31	572	300	1	35
3	1	1	1	1	28	30	568	300	1	35
4	1	1	1	1	28	24	568	300	1	35
5	1	1	1	1	28	24	563	300	1	35
6	1	1	1	1	31	28	563	300	1	35
7	1	1	1	1	28	24	566	300	1	35
8	1	1	1	1	31	28	568	300	1	35
9	1	1	1	1	28	24	572	300	1	35
10	1	1	1	1	28	24	575	300	1	35
11	1	1	1	1	31	28	583	300	1	35
12	1	1	1	1	31	28	591	302	1	35
13	1	1	1	1	28	24	600	300	1	35
14	1	1	1	1	25	24	608	300	1	35
15	1	1	1	1	31	28	611	300	1	35
0	1	1	1	1	31	28	617	300	1	35
1	1	1	1	1	35	31	624	300	1	35
2	1	1	1	1	28	24	627	300	1	35
3	1	1	1	1	24	24	632	300	1	35
4	1	1	1	1	28	24	632	300	1	35
5	1	1	1	1	35	31	627	300	1	35
6	1	1	1	1	31	28	625	300	1	35
7	1	1	1	1	28	24	622	300	1	35
8	1	1	1	1	28	24	615	300	1	35
9	1	1	1	1	35	31	609	300	1	35
10	1	1	1	1	28	24	606	300	1	35
11	1	1	1	1	24	24	600	300	1	35
12	1	1	1	1	24	24	593	300	1	35
13	1	1	1	1	24	24	591	300	1	35
14	1	1	1	1	28	24	588	300	1	35
15	1	1	1	1	31	28	585	300	1	35
0	1	1	1	1	31	28	588	300	1	35
1	1	1	1	1	31	28	588	300	1	35
2	1	1	1	1	31	28	591	300	1	35
3	1	1	1	1	25	28	595	300	1	35
4	1	1	1	1	28	24	600	300	1	35
5	1	1	1	1	28	24	604	300	1	35
6	1	1	1	1	35	31	608	300	1	35
7	1	1	1	1	28	24	615	300	1	35
8	1	1	1	1	28	24	617	300	1	35
9	1	1	1	1	28	24	622	300	1	35
10	1	1	1	1	28	24	624	300	1	35
11	1	1	1	1	28	24	624	300	1	35
12	1	1	1	1	31	28	624	300	1	35
13	1	1	1	1	28	24	622	300	1	35
14	1	1	1	1	24	24	617	300	1	35
15	1	1	1	1	31	27	614	300	1	35
0	1	1	1	1	28	24	608	300	1	35
1	1	1	1	1	28	24	604	300	1	35
2	1	1	1	1	35	31	595	300	1	35
3	1	1	1	1	28	24	591	300	1	35
4	1	1	1	1	28	24	583	300	1	35
5	1	1	1	1	28	24	575	300	1	35
6	1	1	1	1	35	31	574	300	1	35
7	1	1	1	1	28	24	569	300	1	35
8	1	1	1	1	35	31	568	300	1	35
9	1	1	1	1	31	28	563	300	1	35
10	1	1	1	1	35	31	560	300	1	35
11	1	1	1	1	31	28	560	300	1	35
12	1	1	1	1	28	24	560	300	1	35
13	1	1	1	1	24	24	560	300	1	35
14	1	1	1	1	28	24	560	300	1	35
15	1	1	1	1	28	24	561	300	1	35
0	1	1	1	1	31	28	563	300	1	35
1	1	1	1	1	31	28	568	300	1	35
2	1	1	1	1	28	24	568	300	1	35
3	1	1	1	1	24	25	569	300	1	35
4	1	1	1	1	31	28	569	300	1	35
5	1	1	1	1	31	28	569	300	1	35
6	1	1	1	1	35	31	568	300	1	35
7	1	1	1	1	28	24	568	300	1	35
8	1	1	1	1	31	28	561	300	1	35
9	1	1	1	1	28	24	556	300	1	35
10	1	1	1	1	28	24	551	300	1	35
11	1	1	1	1	31	28	543	300	1	35
12	1	1	1	1	28	24	536	300	1	35
13	1	1	1	1	35	31	527	300	1	35
14	1	1	1	1	25	24	519	300	1	35
15	1	1	1	1	31	24	512	300	1	35
0	1	1	1	1	24	24	504	300	1	35
1	1	1	1	1	35	31	497	300	1	35
2	1	1	1	1	31	28	494	300	1	35
3	1	1	1	1	28	24	487	300	1	35
4	1	1	1	1	28	24	486	300	1	35
5	1	1	1	1	28	24	481	300	1	35
6	1	1	1	1	31	28	480	300	1	35
7	1	1	1	1	28	24	480	300	1	35
8	1	1	1	1	28	24	478	300	1	35
9	1	1	1	1	28	24	476	300	1	35
10	1	1	1	1	28	24	476	300	1	35
11	1	1	1	1	31	28	476	300	1	35
12	1	1	1	1	28	24	478	300	1	35
13	1	1	1	1	28	24	480	300	1	35
14	1	1	1	1	28	24	483	300	1	35
15	1	1	1	1	24	24	487	300	1	35
0	1	1	1	1	28	24	494	300	1	35
1	1	1	1	1	35	31	499	300	1	35
2	1	1	1	1	28	24	504	300	1	35
3	1	1	1	1	19	25	511	300	1	35
4	1	1	1	1	28	24	515	300	1	35
5	1	1	1	1	28	24	519	300	1	35
6	1	1	1	1	35	31	519	300	1	35
7	1	1	1	1	24	24	519	300	1	35
8	1	1	1	1	28	24	518	300	1	35
9	1	1	1	1	28	24	511	300	1	35
10	1	1	1	1	28	24	504	300	1	35
11	1	1	1	1	28	24	492	300	1	35
12	1	1	1	1	28	24	480	300	1	35
13	1	1	1	1	27	24	467	300	1	35
14	1	1	1	1	24	24	455	300	1	35
15	1	1	1	1	28	24	441	300	1	35
0	1	1	1	1	28	24	432	300	1	35
1	1	1	1	1	27	24	419	300	1	35
2	1	1	1	1	28	24	412	300	1	35
3	1	1	1	1	31	28	406	300	1	35
4	1	1	1	1	28	24	399	300	1	35
5	1	1	1	1	24	24	399	300	1	35
6	1	1	1	1	28	24	399	300	1	35
7	1	1	1	1	27	24	403	300	1	35
8	1	1	1	1	25	24	408	300	1	35
9	1	1	1	1	31	28	415	300	1	35
10	1	1	1	1	28	24	423	300	1	35
11	1	1	1	1	31	28	433	300	1	35
12	1	1	1	1	28	24	448	300	1	35
13	1	1	1	1	28	24	455	300	1	35
14	1	1	1	1	31	28	472	300	1	35
15	1	1	1	1	31	28	483	300	1	35
0	1	1	1	1	28	24	496	300	1	35
1	1	1	1	1	31	28	510	300	1	35
2	1	1	1	1	27	24	519	300	1	35
3	1	1	1	1	24	24	527	300	1	35
4	1	1	1	1	31	28	531	300	1	35
5	1	1	1	1	31	28	531	300	1	35
6	1	1	1	1	31	28	527	300	1	35
7	1	1	1	1	28	24	524	300	1	35
8	1	1	1	1	28	24	513	300	1	35
9	1	1	1	1	28	24	504	300	1	35
10	1	1	1	1	27	24	487	300	1	35
11	1	1	1	1	28	24	472	300	1	35
12	1	1	1	1	25	24	455	300	1	35
13	1	1	1	1	27	24	444	300	1	35
14	1	1	1	1	30	27	432	300	1	35
15	1	1	1	1	27	24	419	300	1	35
0	1	1	1	1	27	24	414	300	1	35
1	1	1	1	1	35	31	408	300	1	35
2	1	1	1	1	27	24	408	300	1	35
3	1	1	1	1	27	24	408	300	1	35
4	1	1	1	1	31	28	414	300	1	35
5	1	1	1	1	31	28	419	300	1	35
6	1	1	1	1	31	28	430	300	1	35
7	1	1	1	1	28	24	440	300	1	35
8	1	1	1	1	28	24	455	300	1	35
9	1	1	1	1	31	28	467	300	1	35
10	1	1	1	1	28	24	483	300	1	35
11	1	1	1	1	35	31	496	300	1	35
12	1	1	1	1	28	24	510	300	1	35
13	1	1	1	1	28	24	519	300	1	35
14	1	1	1	1	31	28	527	300	1	35
15	1	1	1	1	28	24	536	300	1	35
0	1	1	1	1	28	24	536	300	1	35
1	1	1	1	1	28	24	531	300	1	35
2	1	1	1	1	28	24	527	300	1	35
3	1	1	1	1	28	24	518	300	1	35
4	1	1	1	1	28	24	508	300	1	35
5	1	1	1	1	31	28	496	300	1	35
6	1	1	1	1	31	28	481	300	1	35
7	1	1	1	1	28	24	470	300	1	35
8	1	1	1	1	28	24	457	300	1	35
9	1	1	1	1	24	24	448	300	1	35
10	1	1	1	1	28	24	440	300	1	35
11	1	1	1	1	24	24	432	300	1	35
12	1	1	1	1	28	24	428	300	1	35
13	1	1	1	1	35	31	423	300	1	35
14	1	1	1	1	24	24	422	300	1	35
15	1	1	1	1	24	24	419	300	1	35
0	1	1	1	1	35	31	419	300	1	35
1	1	1	1	1	35	31	423	300	1	35
2	1	1	1	1	28	24	425	300	1	35
3	1	1	1	1	27	19	432	300	1	35
4	1	1	1	1	31	28	440	300	1	35
5	1	1	1	1	27	24	448	300	1	35
6	1	1	1	1	28	24	455	300	1	35
7	1	1	1	1	28	24	467	300	1	35
8	1	1	1	1	31	28	480	300	1	35
9	1	1	1	1	35	31	492	300	1	35
10	1	1	1	1	28	24	504	300	1	35
11	1	1	1	1	35	31	511	300	1	35
12	1	1	1	1	31	28	519	300	1	35
13	1	1	1	1	31	28	524	300	1	35
14	1	1	1	1	28	24	526	300	1	35
15	1	1	1	1	28	24	524	300	1	35
0	1	1	1	1	28	24	519	300	1	35
1	1	1	1	1	24	24	512	300	1	35
2	1	1	1	1	28	24	504	300	1	35
3	1	1	1	1	24	24	492	300	1	35
4	1	1	1	1	28	24	480	300	1	35
5	1	1	1	1	31	28	467	300	1	35
6	1	1	1	1	35	31	457	300	1	35
7	1	1	1	1	28	24	451	300	1	35
8	1	1	1	1	28	24	448	300	1	35
9	1	1	1	1	28	24	444	300	1	35
10	1	1	1	1	28	24	448	300	1	35
11	1	1	1	1	31	28	449	300	1	35
12	1	1	1	1	28	24	455	300	1	35
13	1	1	1	1	28	24	467	300	1	35
14	1	1	1	1	30	28	478	300	1	35
15	1	1	1	1	28	24	487	300	1	35
0	1	1	1	1	28	24	499	300	1	35
1	1	1	1	1	31	28	510	300	1	35
2	1	1	1	1	28	24	519	300	1	35
3	1	1	1	1	28	24	527	300	1	35
4	1	1	1	1	28	24	536	300	1	35
5	1	1	1	1	28	24	540	300	1	35
6	1	1	1	1	28	24	543	300	1	35
7	1	1	1	1	27	24	543	300	1	35
8	1	1	1	1	28	24	543	300	1	35
9	1	1	1	1	25	24	543	300	1	35
10	1	1	1	1	28	24	540	300	1	35
11	1	1	1	1	28	24	532	300	1	35
12	1	1	1	1	31	28	524	300	1	35
13	1	1	1	1	28	24	513	300	1	35
14	1	1	1	1	24	24	500	300	1	35
15	1	1	1	1	31	28	487	300	1	35
0	1	1	1	1	28	24	472	300	1	35
1	1	1	1	1	25	24	455	300	1	35
2	1	1	1	1	28	24	440	300	1	35
3	1	1	1	1	28	24	423	300	1	35
4	1	1	1	1	28	24	408	300	1	35
5	1	1	1	1	27	24	398	300	1	35
6	1	1	1	1	35	31	387	300	1	35
7	1	1	1	1	25	24	384	300	1	35
8	1	1	1	1	31	27	380	300	1	35
9	1	1	1	1	25	24	380	300	1	35
10	1	1	1	1	25	24	384	297	1	35
11	1	1	1	1	31	25	387	300	1	35
12	1	1	1	1	31	27	396	300	1	35
13	1	1	1	1	28	24	408	302	1	35
14	1	1	1	1	25	24	415	302	1	35
15	1	1	1	1	28	24	430	302	1	35
0	1	1	1	1	28	24	440	302	1	35
1	1	1	1	1	31	28	451	300	1	35
2	1	1	1	1	28	24	462	302	1	35
3	1	1	1	1	31	28	470	302	1	35
4	1	1	1	1	35	31	476	303	1	35
5	1	1	1	1	28	24	480	300	1	35
6	1	1	1	1	28	24	481	300	1	35
7	1	1	1	1	28	24	483	300	1	35
8	1	1	1	1	25	24	483	297	1	35
9	1	1	1	1	35	31	483	300	1	35
10	1	1	1	1	25	24	481	295	1	35
11	1	1	1	1	35	31	480	295	1	35
12	1	1	1	1	25	24	480	295	1	35
13	1	1	1	1	25	24	480	295	1	35
14	1	1	1	1	35	31	480	295	1	35
15	1	1	1	1	31	25	480	295	1	35
0	1	1	1	1	25	24	480	297	1	35
1	1	1	1	1	25	24	483	295	1	35
2	1	1	1	1	25	24	487	297	1	35
3	1	1	1	1	25	25	492	297	1	35
4	1	1	1	1	24	24	496	295	1	35
5	1	1	1	1	35	31	504	295	1	35
6	1	1	1	1	35	31	515	297	1	35
7	1	1	1	1	25	24	527	297	1	35
8	1	1	1	1	25	24	543	297	1	35
9	1	1	1	1	25	24	560	300	1	35
10	1	1	1	1	31	25	575	300	1	35
11	1	1	1	1	28	24	590	300	1	35
12	1	1	1	1	27	24	604	300	1	35
13	1	1	1	1	27	24	611	300	1	35
14	1	1	1	1	24	24	617	300	1	35
15	1	1	1	1	31	28	620	300	1	35
0	1	1	1	1	28	24	615	300	1	35
1	1	1	1	1	24	24	604	300	1	35
2	1	1	1	1	31	28	588	300	1	35
3	1	1	1	1	35	31	568	300	1	35
4	1	1	1	1	31	28	543	300	1	35
5	1	1	1	1	28	24	524	300	1	35
6	1	1	1	1	28	24	502	300	1	35
7	1	1	1	1	28	19	483	302	1	35
8	1	1	1	1	28	24	472	302	1	35
9	1	1	1	1	24	24	465	300	1	35
10	1	1	1	1	28	24	472	300	1	35
11	1	1	1	1	24	24	483	300	1	35
12	1	1	1	1	28	24	504	300	1	35
13	1	1	1	1	31	28	531	300	1	35
14	1	1	1	1	28	24	561	300	1	35
15	1	1	1	1	31	28	591	300	1	35
0	1	1	1	1	28	24	624	300	1	35
1	1	1	1	1	28	24	647	300	1	35
2	1	1	1	1	28	24	664	300	1	35
3	1	1	1	1	24	28	671	300	1	35
4	1	1	1	1	28	24	664	300	1	35
5	1	1	1	1	35	31	647	300	1	35
6	1	1	1	1	31	28	615	300	1	35
7	1	1	1	1	28	24	575	300	1	35
8	1	1	1	1	28	24	532	300	1	35
9	1	1	1	1	28	24	483	300	1	35
10	1	1	1	1	27	24	432	300	1	35
11	1	1	1	1	28	24	384	300	1	35
12	1	1	1	1	27	24	339	300	1	35
13	1	1	1	1	28	24	305	300	1	35
14	1	1	1	1	30	28	280	300	1	35
15	1	1	1	1	28	24	262	300	1	35
0	1	1	1	1	28	24	255	300	1	35
1	1	1	1	1	35	31	255	300	1	35
2	1	1	1	1	28	24	268	300	1	35
3	1	1	1	1	28	24	286	300	1	35
4	1	1	1	1	24	24	307	300	1	35
5	1	1	1	1	25	24	335	300	1	35
6	1	1	1	1	25	24	367	300	1	35
7	1	1	1	1	28	24	396	300	1	35
8	1	1	1	1	35	31	423	300	1	35
9	1	1	1	1	25	24	454	300	1	35
10	1	1	1	1	31	28	476	300	1	35
11	1	1	1	1	35	31	496	300	1	35
12	1	1	1	1	27	24	511	300	1	35
13	1	1	1	1	28	24	519	300	1	35
14	1	1	1	1	28	24	527	300	1	35
15	1	1	1	1	28	24	529	300	1	35
0	1	1	1	1	31	28	527	300	1	35
1	1	1	1	1	28	24	526	300	1	35
2	1	1	1	1	28	24	519	300	1	35
3	1	1	1	1	24	24	515	300	1	35
4	1	1	1	1	28	24	508	300	1	35
5	1	1	1	1	28	24	504	300	1	35
6	1	1	1	1	31	28	496	300	1	35
7	1	1	1	1	31	28	492	300	1	35
8	1	1	1	1	28	24	487	300	1	35
9	1	1	1	1	28	24	483	300	1	35
10	1	1	1	1	28	24	483	300	1	35
11	1	1	1	1	28	24	483	300	1	35
12	1	1	1	1	28	24	486	300	1	35
13	1	1	1	1	28	24	487	300	1	35
14	1	1	1	1	28	27	492	300	1	35
15	1	1	1	1	25	24	496	300	1	35
0	1	1	1	1	31	27	499	300	1	35
1	1	1	1	1	31	27	504	300	1	35
2	1	1	1	1	27	24	508	300	1	35
3	1	1	1	1	28	24	511	300	1	35
4	1	1	1	1	25	24	513	300	1	35
5	1	1	1	1	35	31	516	300	1	35
6	1	1	1	1	25	24	519	300	1	35
7	1	1	1	1	35	31	519	300	1	35
8	1	1	1	1	25	24	519	297	1	35
9	1	1	1	1	25	24	519	295	1	35
10	1	1	1	1	24	24	519	295	1	35
11	1	1	1	1	31	25	521	300	1	35
12	1	1	1	1	28	24	524	300	1	35
13	1	1	1	1	31	28	527	302	1	35
14	1	1	1	1	27	24	534	300	1	35
15	1	1	1	1	27	24	540	300	1	35
0	1	1	1	1	24	24	551	297	1	35
1	1	1	1	1	25	24	560	297	1	35
2	1	1	1	1	25	24	574	300	1	35
3	1	1	1	1	24	25	583	300	1	35
4	1	1	1	1	28	24	595	300	1	35
5	1	1	1	1	25	24	604	300	1	35
6	1	1	1	1	31	25	608	300	1	35
7	1	1	1	1	25	24	608	297	1	35
8	1	1	1	1	25	24	604	300	1	35
9	1	1	1	1	28	24	591	300	1	35
10	1	1	1	1	24	24	575	300	1	35
11	1	1	1	1	28	24	561	300	1	35
12	1	1	1	1	28	24	542	300	1	35
13	1	1	1	1	28	24	519	300	1	35
14	1	1	1	1	30	28	497	300	1	35
15	1	1	1	1	28	24	480	300	1	35
0	1	1	1	1	28	24	460	300	1	35
1	1	1	1	1	31	28	444	300	1	35
2	1	1	1	1	24	24	433	300	1	35
3	1	1	1	1	28	24	428	300	1	35
4	1	1	1	1	28	24	423	300	1	35
5	1	1	1	1	31	28	423	300	1	35
6	1	1	1	1	24	24	432	300	1	35
7	1	1	1	1	28	24	440	302	1	35
8	1	1	1	1	28	24	451	302	1	35
9	1	1	1	1	25	24	463	302	1	35
10	1	1	1	1	35	31	480	302	1	35
11	1	1	1	1	35	28	496	302	1	35
12	1	1	1	1	35	31	512	302	1	35
13	1	1	1	1	31	28	527	302	1	35
14	1	1	1	1	28	24	542	302	1	35
15	1	1	1	1	31	28	551	302	1	35
0	1	1	1	1	28	24	561	302	1	35
1	1	1	1	1	28	24	568	300	1	35
2	1	1	1	1	28	24	572	300	1	35
3	1	1	1	1	19	25	569	300	1	35
4	1	1	1	1	31	28	566	302	1	35
5	1	1	1	1	28	24	556	300	1	35
6	1	1	1	1	31	28	543	300	1	35
7	1	1	1	1	28	24	531	300	1	35
8	1	1	1	1	27	24	513	300	1	35
9	1	1	1	1	25	24	496	300	1	35
10	1	1	1	1	28	24	480	300	1	35
11	1	1	1	1	27	24	463	300	1	35
12	1	1	1	1	28	24	449	300	1	35
13	1	1	1	1	27	24	440	300	1	35
14	1	1	1	1	24	24	435	300	1	35
15	1	1	1	1	28	24	435	300	1	35
0	1	1	1	1	31	28	440	300	1	35
1	1	1	1	1	31	28	451	300	1	35
2	1	1	1	1	27	24	465	300	1	35
3	1	1	1	1	31	28	483	300	1	35
4	1	1	1	1	28	24	502	300	1	35
5	1	1	1	1	31	28	519	300	1	35
6	1	1	1	1	27	24	531	300	1	35
7	1	1	1	1	25	24	543	297	1	35
8	1	1	1	1	25	24	547	297	1	35
9	1	1	1	1	25	24	547	297	1	35
10	1	1	1	1	28	24	540	304	1	35
11	1	1	1	1	31	28	527	304	1	35
12	1	1	1	1	28	24	512	304	1	35
13	1	1	1	1	28	24	492	302	1	35
14	1	1	1	1	27	24	472	300	1	35
15	1	1	1	1	28	24	451	300	1	35
0	1	1	1	1	28	24	433	300	1	35
1	1	1	1	1	28	24	415	303	1	35
2	1	1	1	1	28	24	408	302	1	35
3	1	1	1	1	24	24	399	300	1	35
4	1	1	1	1	35	31	399	300	1	35
5	1	1	1	1	25	24	406	297	1	35
6	1	1	1	1	28	24	415	300	1	35
7	1	1	1	1	27	24	428	300	1	35
8	1	1	1	1	31	28	444	300	1	35
9	1	1	1	1	31	28	462	300	1	35
10	1	1	1	1	24	24	480	300	1	35
11	1	1	1	1	25	24	496	300	1	35
12	1	1	1	1	25	24	510	300	1	35
13	1	1	1	1	25	24	519	300	1	35
14	1	1	1	1	24	24	527	300	1	35
15	1	1	1	1	31	28	527	300	1	35
0	1	1	1	1	31	28	524	300	1	35
1	1	1	1	1	31	28	518	300	1	35
2	1	1	1	1	31	28	508	300	1	35
3	1	1	1	1	31	28	496	300	1	35
4	1	1	1	1	35	31	483	300	1	35
5	1	1	1	1	28	24	472	300	1	35
6	1	1	1	1	24	24	460	300	1	35
7	1	1	1	1	31	27	451	300	1	35
8	1	1	1	1	28	24	448	300	1	35
9	1	1	1	1	31	28	444	300	1	35
10	1	1	1	1	28	24	448	300	1	35
11	1	1	1	1	35	31	449	300	1	35
12	1	1	1	1	28	24	455	300	1	35
13	1	1	1	1	28	24	463	300	1	35
14	1	1	1	1	28	24	472	300	1	35
15	1	1	1	1	28	24	480	300	1	35
0	1	1	1	1	28	24	487	300	1	35
1	1	1	1	1	28	24	494	300	1	35
2	1	1	1	1	28	24	496	300	1	35
3	1	1	1	1	28	24	497	300	1	35
4	1	1	1	1	28	24	496	300	1	35
5	1	1	1	1	28	24	494	300	1	35
6	1	1	1	1	31	28	487	300	1	35
7	1	1	1	1	28	24	486	300	1	35
8	1	1	1	1	24	24	483	300	1	35
9	1	1	1	1	28	24	481	300	1	35
10	1	1	1	1	28	24	483	300	1	35
11	1	1	1	1	28	24	487	300	1	35
12	1	1	1	1	27	24	494	300	1	35
13	1	1	1	1	27	24	499	300	1	35
14	1	1	1	1	24	24	504	300	1	35
15	1	1	1	1	28	24	510	300	1	35
0	1	1	1	1	25	24	511	300	1	35
1	1	1	1	1	35	31	508	300	1	35
2	1	1	1	1	35	31	499	300	1	35
3	1	1	1	1	27	24	487	300	1	35
4	1	1	1	1	27	24	472	300	1	35
5	1	1	1	1	27	24	451	300	1	35
6	1	1	1	1	35	31	432	300	1	35
7	1	1	1	1	27	24	412	300	1	35
8	1	1	1	1	31	28	391	300	1	35
9	1	1	1	1	25	24	377	300	1	35
10	1	1	1	1	35	31	368	300	1	35
11	1	1	1	1	35	31	364	300	1	35
12	1	1	1	1	31	28	368	300	1	35
13	1	1	1	1	31	28	376	300	1	35
14	1	1	1	1	28	24	391	300	1	35
15	1	1	1	1	28	19	415	300	1	35
0	1	1	1	1	35	31	444	300	1	35
1	1	1	1	1	28	24	480	300	1	35
2	1	1	1	1	35	31	515	300	1	35
3	1	1	1	1	24	24	551	300	1	35
4	1	1	1	1	35	31	591	300	1	35
5	1	1	1	1	35	31	632	300	1	35
6	1	1	1	1	35	31	670	300	1	35
7	1	1	1	1	28	24	705	300	1	35
8	1	1	1	1	31	28	739	300	1	35
9	1	1	1	1	31	28	771	300	1	35
10	1	1	1	1	31	28	799	300	1	35
11	1	1	1	1	28	24	830	300	1	35
12	1	1	1	1	28	24	856	300	1	35
13	1	1	1	1	24	24	880	300	1	35
14	1	1	1	1	30	28	903	300	1	35
15	1	1	1	1	28	24	926	300	1	35
0	1	1	1	1	28	24	945	300	1	35
1	1	1	1	1	31	28	964	300	1	35
2	1	1	1	1	28	24	982	300	1	35
3	1	1	1	1	28	24	995	300	1	35
4	1	1	1	1	28	24	1006	300	1	35
5	1	1	1	1	28	24	1011	300	1	35
6	1	1	1	1	28	24	1012	300	1	35
7	1	1	1	1	28	24	1008	300	1	35
8	1	1	1	1	28	24	999	300	1	35
9	1	1	1	1	27	24	984	300	1	35
10	1	1	1	1	27	24	960	300	1	35
11	1	1	1	1	35	31	927	300	1	35
12	1	1	1	1	28	24	896	300	1	35
13	1	1	1	1	27	24	851	300	1	35
14	1	1	1	1	27	24	804	300	1	35
15	1	1	1	1	31	28	755	300	1	35
0	1	1	1	1	24	24	704	300	1	35
1	1	1	1	1	27	24	647	300	1	35
2	1	1	1	1	25	24	595	300	1	35
3	1	1	1	1	17	27	543	300	1	35
4	1	1	1	1	28	24	494	300	1	35
5	1	1	1	1	27	24	448	300	1	35
6	1	1	1	1	31	25	408	300	1	35
7	1	1	1	1	24	24	376	300	1	35
8	1	1	1	1	31	27	345	300	1	35
9	1	1	1	1	27	24	326	300	1	35
10	1	1	1	1	25	24	312	300	1	35
11	1	1	1	1	31	27	300	300	1	35
12	1	1	1	1	27	24	295	300	1	35
13	1	1	1	1	31	27	295	300	1	35
14	1	1	1	1	30	27	300	300	1	35
15	1	1	1	1	31	25	304	300	1	35
0	1	1	1	1	31	28	312	300	1	35
1	1	1	1	1	35	31	323	300	1	35
2	1	1	1	1	27	24	334	300	1	35
3	1	1	1	1	27	24	344	300	1	35
4	1	1	1	1	27	24	353	300	1	35
5	1	1	1	1	31	28	364	300	1	35
6	1	1	1	1	25	24	371	300	1	35
7	1	1	1	1	27	24	380	300	1	35
8	1	1	1	1	27	24	384	300	1	35
9	1	1	1	1	24	24	391	300	1	35
10	1	1	1	1	27	24	396	300	1	35
11	1	1	1	1	24	24	399	300	1	35
12	1	1	1	1	31	28	399	300	1	35
13	1	1	1	1	31	28	403	300	1	35
14	1	1	1	1	31	28	408	300	1	35
15	1	1	1	1	27	24	408	300	1	35
0	1	1	1	1	31	28	414	300	1	35
1	1	1	1	1	28	24	415	300	1	35
2	1	1	1	1	31	28	423	300	1	35
3	1	1	1	1	25	28	432	300	1	35
4	1	1	1	1	31	28	444	300	1	35
5	1	1	1	1	28	24	455	300	1	35
6	1	1	1	1	35	31	472	300	1	35
7	1	1	1	1	31	28	489	300	1	35
8	1	1	1	1	31	28	510	300	1	35
9	1	1	1	1	35	31	527	300	1	35
10	1	1	1	1	31	28	543	300	1	35
11	1	1	1	1	28	24	561	300	1	35
12	1	1	1	1	28	24	575	300	1	35
13	1	1	1	1	28	24	583	300	1	35
14	1	1	1	1	24	24	590	300	1	35
15	1	1	1	1	28	24	591	300	1	35
0	1	1	1	1	28	24	585	300	1	35
1	1	1	1	1	35	31	575	300	1	35
2	1	1	1	1	28	24	566	300	1	35
3	1	1	1	1	27	24	550	300	1	35
4	1	1	1	1	28	24	531	300	1	35
5	1	1	1	1	27	24	513	300	1	35
6	1	1	1	1	28	24	496	300	1	35
7	1	1	1	1	28	24	480	300	1	35
8	1	1	1	1	31	28	463	300	1	35
9	1	1	1	1	28	24	454	300	1	35
10	1	1	1	1	35	31	444	300	1	35
11	1	1	1	1	35	31	440	300	1	35
12	1	1	1	1	27	24	440	300	1	35
13	1	1	1	1	28	24	440	300	1	35
14	1	1	1	1	27	24	448	300	1	35
15	1	1	1	1	31	28	455	300	1	35
0	1	1	1	1	28	24	463	300	1	35
1	1	1	1	1	28	24	476	300	1	35
2	1	1	1	1	24	24	487	300	1	35
3	1	1	1	1	28	24	496	300	1	35
4	1	1	1	1	28	24	504	300	1	35
5	1	1	1	1	28	24	508	300	1	35
6	1	1	1	1	31	28	511	300	1	35
7	1	1	1	1	31	28	510	300	1	35
8	1	1	1	1	28	24	505	300	1	35
9	1	1	1	1	31	28	499	300	1	35
10	1	1	1	1	31	28	492	300	1	35
11	1	1	1	1	28	24	483	300	1	35
12	1	1	1	1	28	24	476	300	1	35
13	1	1	1	1	35	31	467	300	1	35
14	1	1	1	1	25	24	460	300	1	35
15	1	1	1	1	28	24	455	300	1	35
0	1	1	1	1	28	24	451	300	1	35
1	1	1	1	1	31	28	451	300	1	35
2	1	1	1	1	28	24	451	300	1	35
3	1	1	1	1	28	24	455	300	1	35
4	1	1	1	1	28	24	462	300	1	35
5	1	1	1	1	31	28	467	300	1	35
6	1	1	1	1	28	24	478	300	1	35
7	1	1	1	1	28	24	487	300	1	35
8	1	1	1	1	27	24	496	300	1	35
9	1	1	1	1	31	28	505	300	1	35
10	1	1	1	1	28	24	515	300	1	35
11	1	1	1	1	31	28	526	300	1	35
12	1	1	1	1	31	28	532	300	1	35
13	1	1	1	1	27	24	540	300	1	35
14	1	1	1	1	28	24	543	300	1	35
15	1	1	1	1	28	24	543	300	1	35
0	1	1	1	1	24	24	543	300	1	35
1	1	1	1	1	28	24	542	300	1	35
2	1	1	1	1	28	24	537	300	1	35
3	1	1	1	1	25	28	531	300	1	35
4	1	1	1	1	28	24	526	300	1	35
5	1	1	1	1	28	24	519	300	1	35
6	1	1	1	1	35	31	511	300	1	35
7	1	1	1	1	28	24	504	300	1	35
8	1	1	1	1	28	24	497	300	1	35
9	1	1	1	1	31	28	492	300	1	35
10	1	1	1	1	35	31	487	300	1	35
11	1	1	1	1	31	27	487	300	1	35
12	1	1	1	1	27	24	487	300	1	35
13	1	1	1	1	31	28	489	300	1	35
14	1	1	1	1	28	28	496	300	1	35
15	1	1	1	1	31	27	504	300	1	35
0	1	1	1	1	27	24	511	300	1	35
1	1	1	1	1	24	24	519	300	1	35
2	1	1	1	1	28	24	531	300	1	35
3	1	1	1	1	28	24	542	300	1	35
4	1	1	1	1	28	24	551	300	1	35
5	1	1	1	1	31	25	560	297	1	35
6	1	1	1	1	25	24	563	295	1	35
7	1	1	1	1	25	24	568	295	1	35
8	1	1	1	1	25	24	568	295	1	35
9	1	1	1	1	25	24	568	302	1	35
10	1	1	1	1	28	24	563	302	1	35
11	1	1	1	1	31	28	560	300	1	35
12	1	1	1	1	28	24	551	300	1	35
13	1	1	1	1	27	24	547	300	1	35
14	1	1	1	1	31	28	543	302	1	35
15	1	1	1	1	24	24	543	303	1	35
0	1	1	1	1	28	24	543	302	1	35
1	1	1	1	1	35	31	547	304	1	35
2	1	1	1	1	28	24	553	300	1	35
3	1	1	1	1	31	28	563	300	1	35
4	1	1	1	1	28	24	574	300	1	35
5	1	1	1	1	27	24	583	300	1	35
6	1	1	1	1	31	28	598	300	1	35
7	1	1	1	1	25	24	608	295	1	35
8	1	1	1	1	25	24	615	300	1	35
9	1	1	1	1	35	31	622	297	1	35
10	1	1	1	1	31	25	624	300	1	35
11	1	1	1	1	31	25	622	300	1	35
12	1	1	1	1	31	25	615	297	1	35
13	1	1	1	1	31	25	606	300	1	35
14	1	1	1	1	24	24	591	297	1	35
15	1	1	1	1	25	24	575	300	1	35
0	1	1	1	1	27	24	561	300	1	35
1	1	1	1	1	35	31	543	300	1	35
2	1	1	1	1	28	24	531	300	1	35
3	1	1	1	1	27	24	519	300	1	35
4	1	1	1	1	35	31	510	300	1	35
5	1	1	1	1	27	24	504	300	1	35
6	1	1	1	1	24	24	499	300	1	35
7	1	1	1	1	28	24	499	300	1	35
8	1	1	1	1	28	24	504	300	1	35
9	1	1	1	1	28	24	508	300	1	35
10	1	1	1	1	28	24	515	300	1	35
11	1	1	1	1	35	31	527	300	1	35
12	1	1	1	1	28	24	537	300	1	35
13	1	1	1	1	28	24	551	302	1	35
14	1	1	1	1	35	31	561	300	1	35
15	1	1	1	1	28	24	574	302	1	35
0	1	1	1	1	28	24	583	302	1	35
1	1	1	1	1	28	24	591	302	1	35
2	1	1	1	1	35	31	600	302	1	35
3	1	1	1	1	31	28	604	302	1	35
4	1	1	1	1	35	31	608	302	1	35
5	1	1	1	1	28	24	608	300	1	35
6	1	1	1	1	31	28	608	300	1	35
7	1	1	1	1	35	28	608	302	1	35
8	1	1	1	1	28	24	606	300	1	35
9	1	1	1	1	31	28	601	302	1	35
10	1	1	1	1	28	24	600	300	1	35
11	1	1	1	1	28	24	595	300	1	35
12	1	1	1	1	31	28	591	300	1	35
13	1	1	1	1	28	24	591	300	1	35
14	1	1	1	1	24	24	590	300	1	35
15	1	1	1	1	28	24	591	300	1	35
0	1	1	1	1	31	28	593	300	1	35
1	1	1	1	1	35	31	600	300	1	35
2	1	1	1	1	25	24	608	300	1	35
3	1	1	1	1	28	24	615	300	1	35
4	1	1	1	1	24	24	625	300	1	35
5	1	1	1	1	27	24	636	300	1	35
6	1	1	1	1	31	27	646	300	1	35
7	1	1	1	1	28	24	654	300	1	35
8	1	1	1	1	27	24	657	300	1	35
9	1	1	1	1	27	24	659	300	1	35
10	1	1	1	1	35	31	659	300	1	35
11	1	1	1	1	31	25	655	300	1	35
12	1	1	1	1	25	24	647	300	1	35
13	1	1	1	1	27	24	638	300	1	35
14	1	1	1	1	25	24	627	300	1	35
15	1	1	1	1	24	24	615	300	1	35
0	1	1	1	1	31	27	608	300	1	35
1	1	1	1	1	25	24	601	300	1	35
2	1	1	1	1	27	24	600	300	1	35
3	1	1	1	1	24	24	600	300	1	35
4	1	1	1	1	31	25	600	300	1	35
5	1	1	1	1	31	28	608	300	1	35
6	1	1	1	1	31	28	611	300	1	35
7	1	1	1	1	25	24	617	300	1	35
8	1	1	1	1	27	24	624	300	1	35
9	1	1	1	1	28	24	627	300	1	35
10	1	1	1	1	28	24	627	300	1	35
11	1	1	1	1	35	31	625	300	1	35
12	1	1	1	1	28	24	622	300	1	35
13	1	1	1	1	24	24	614	300	1	35
14	1	1	1	1	33	31	601	300	1	35
15	1	1	1	1	28	24	590	300	1	35
0	1	1	1	1	28	24	575	300	1	35
1	1	1	1	1	31	28	560	300	1	35
2	1	1	1	1	28	24	543	300	1	35
3	1	1	1	1	28	24	531	300	1	35
4	1	1	1	1	31	28	519	300	1	35
5	1	1	1	1	24	24	511	300	1	35
6	1	1	1	1	28	24	504	300	1	35
7	1	1	1	1	28	24	497	300	1	35
8	1	1	1	1	27	24	496	300	1	35
9	1	1	1	1	27	24	496	300	1	35
10	1	1	1	1	28	24	496	300	1	35
11	1	1	1	1	24	24	497	300	1	35
12	1	1	1	1	28	24	504	300	1	35
13	1	1	1	1	28	24	505	300	1	35
14	1	1	1	1	28	24	511	300	1	35
15	1	1	1	1	27	24	515	300	1	35
0	1	1	1	1	28	24	519	300	1	35
1	1	1	1	1	28	24	524	300	1	35
2	1	1	1	1	28	24	527	300	1	35
3	1	1	1	1	28	24	527	300	1	35
4	1	1	1	1	25	24	527	300	1	35
5	1	1	1	1	28	24	527	300	1	35
6	1	1	1	1	24	24	527	300	1	35
7	1	1	1	1	28	24	526	300	1	35
8	1	1	1	1	28	24	524	300	1	35
9	1	1	1	1	31	28	519	300	1	35
10	1	1	1	1	27	24	515	300	1	35
11	1	1	1	1	31	28	512	300	1	35
12	1	1	1	1	28	24	508	300	1	35
13	1	1	1	1	27	24	504	300	1	35
14	1	1	1	1	24	24	499	300	1	35
15	1	1	1	1	28	24	496	300	1	35
0	1	1	1	1	31	28	492	300	1	35
1	1	1	1	1	35	31	489	300	1	35
2	1	1	1	1	28	24	487	300	1	35
3	1	1	1	1	28	24	487	300	1	35
4	1	1	1	1	28	24	486	300	1	35
5	1	1	1	1	27	24	486	300	1	35
6	1	1	1	1	27	24	486	300	1	35
7	1	1	1	1	28	24	483	300	1	35
8	1	1	1	1	28	24	483	300	1	35
9	1	1	1	1	25	24	483	300	1	35
10	1	1	1	1	28	24	483	300	1	35
11	1	1	1	1	31	27	483	300	1	35
12	1	1	1	1	31	28	481	300	1	35
13	1	1	1	1	28	24	480	300	1	35
14	1	1	1	1	35	31	480	300	1	35
15	1	1	1	1	28	24	478	300	1	35
0	1	1	1	1	31	28	476	300	1	35
1	1	1	1	1	28	24	472	300	1	35
2	1	1	1	1	27	24	472	300	1	35
3	1	1	1	1	24	24	472	300	1	35
4	1	1	1	1	25	24	470	300	1	35
5	1	1	1	1	25	24	467	300	1	35
6	1	1	1	1	31	27	467	300	1	35
7	1	1	1	1	31	25	467	300	1	35
8	1	1	1	1	28	24	467	300	1	35
9	1	1	1	1	27	24	467	300	1	35
10	1	1	1	1	25	24	470	300	1	35
11	1	1	1	1	27	19	472	300	1	35
12	1	1	1	1	31	27	472	300	1	35
13	1	1	1	1	27	24	476	300	1	35
14	1	1	1	1	24	24	480	300	1	35
15	1	1	1	1	28	24	481	300	1	35
0	1	1	1	1	27	24	487	300	1	35
1	1	1	1	1	35	31	489	300	1	35
2	1	1	1	1	35	31	494	300	1	35
3	1	1	1	1	28	24	496	300	1	35
4	1	1	1	1	27	24	499	300	1	35
5	1	1	1	1	25	24	499	300	1	35
6	1	1	1	1	28	24	497	300	1	35
7	1	1	1	1	27	24	496	300	1	35
8	1	1	1	1	27	24	492	300	1	35
9	1	1	1	1	25	24	487	300	1	35
10	1	1	1	1	31	28	480	300	1	35
11	1	1	1	1	35	31	473	300	1	35
12	1	1	1	1	27	24	467	300	1	35
13	1	1	1	1	27	24	463	300	1	35
14	1	1	1	1	28	24	460	300	1	35
15	1	1	1	1	28	24	455	300	1	35
0	1	1	1	1	31	28	455	300	1	35
1	1	1	1	1	31	28	460	300	1	35
2	1	1	1	1	31	28	462	300	1	35
3	1	1	1	1	28	24	463	300	1	35
4	1	1	1	1	28	24	472	300	1	35
5	1	1	1	1	28	24	472	300	1	35
6	1	1	1	1	31	28	476	300	1	35
7	1	1	1	1	27	24	480	300	1	35
8	1	1	1	1	28	24	480	300	1	35
9	1	1	1	1	28	24	480	300	1	35
10	1	1	1	1	28	24	476	300	1	35
11	1	1	1	1	31	28	472	300	1	35
12	1	1	1	1	28	24	472	300	1	35
13	1	1	1	1	28	24	463	300	1	35
14	1	1	1	1	30	28	462	300	1	35
15	1	1	1	1	27	24	455	300	1	35
0	1	1	1	1	28	24	455	300	1	35
1	1	1	1	1	24	24	451	300	1	35
2	1	1	1	1	31	28	449	300	1	35
3	1	1	1	1	28	24	448	300	1	35
4	1	1	1	1	28	24	448	300	1	35
5	1	1	1	1	31	28	448	300	1	35
6	1	1	1	1	28	24	444	300	1	35
7	1	1	1	1	28	24	444	300	1	35
8	1	1	1	1	31	28	440	300	1	35
9	1	1	1	1	30	28	440	300	1	35
10	1	1	1	1	31	28	440	300	1	35
11	1	1	1	1	31	28	438	300	1	35
12	1	1	1	1	28	24	435	300	1	35
13	1	1	1	1	28	24	435	300	1	35
14	1	1	1	1	28	24	435	300	1	35
15	1	1	1	1	28	24	435	300	1	35
0	1	1	1	1	35	31	435	300	1	35
1	1	1	1	1	28	24	440	300	1	35
2	1	1	1	1	24	24	440	300	1	35
3	1	1	1	1	22	24	441	300	1	35
4	1	1	1	1	28	24	448	300	1	35
5	1	1	1	1	35	31	448	300	1	35
6	1	1	1	1	31	28	449	300	1	35
7	1	1	1	1	28	24	454	300	1	35
8	1	1	1	1	35	31	455	300	1	35
9	1	1	1	1	27	24	455	300	1	35
10	1	1	1	1	31	28	460	300	1	35
11	1	1	1	1	27	24	460	300	1	35
12	1	1	1	1	35	31	460	300	1	35
13	1	1	1	1	31	28	460	300	1	35
14	1	1	1	1	24	24	460	300	1	35
15	1	1	1	1	31	28	460	300	1	35
0	1	1	1	1	25	24	460	300	1	35
1	1	1	1	1	31	28	460	300	1	35
2	1	1	1	1	27	24	460	300	1	35
3	1	1	1	1	24	24	460	300	1	35
4	1	1	1	1	28	24	460	300	1	35
5	1	1	1	1	28	24	460	300	1	35
6	1	1	1	1	28	24	460	300	1	35
7	1	1	1	1	31	28	460	300	1	35
8	1	1	1	1	28	24	462	300	1	35
9	1	1	1	1	28	24	463	300	1	35
10	1	1	1	1	31	28	463	300	1	35
11	1	1	1	1	31	28	465	300	1	35
12	1	1	1	1	28	24	470	300	1	35
13	1	1	1	1	28	24	472	300	1	35
14	1	1	1	1	28	24	473	300	1	35
15	1	1	1	1	28	24	476	300	1	35
0	1	1	1	1	27	24	480	300	1	35
1	1	1	1	1	31	28	481	300	1	35
2	1	1	1	1	28	24	483	300	1	35
3	1	1	1	1	28	24	487	300	1	35
4	1	1	1	1	25	24	487	300	1	35
5	1	1	1	1	24	24	487	300	1	35
6	1	1	1	1	35	31	489	300	1	35
7	1	1	1	1	24	24	492	300	1	35
8	1	1	1	1	28	24	492	300	1	35
9	1	1	1	1	25	24	492	300	1	35
10	1	1	1	1	31	27	494	300	1	35
11	1	1	1	1	28	24	496	300	1	35
12	1	1	1	1	28	24	496	300	1	35
13	1	1	1	1	24	24	499	300	1	35
14	1	1	1	1	25	24	499	300	1	35
15	1	1	1	1	25	19	504	300	1	35
0	1	1	1	1	30	24	504	300	1	35
1	1	1	1	1	31	28	504	300	1	35
2	1	1	1	1	31	28	504	300	1	35
3	1	1	1	1	28	24	504	300	1	35
4	1	1	1	1	31	28	504	300	1	35
5	1	1	1	1	27	24	502	300	1	35
6	1	1	1	1	28	24	499	300	1	35
7	1	1	1	1	28	24	499	300	1	35
8	1	1	1	1	25	24	499	300	1	35
9	1	1	1	1	25	24	500	300	1	35
10	1	1	1	1	31	28	502	300	1	35
11	1	1	1	1	24	24	504	300	1	35
12	1	1	1	1	27	24	502	300	1	35
13	1	1	1	1	24	24	499	300	1	35
14	1	1	1	1	28	24	496	300	1	35
15	1	1	1	1	31	27	492	300	1	35
0	1	1	1	1	28	24	487	300	1	35
1	1	1	1	1	35	31	480	300	1	35
2	1	1	1	1	28	24	472	300	1	35
3	1	1	1	1	19	25	463	300	1	35
4	1	1	1	1	31	28	455	300	1	35
5	1	1	1	1	24	24	448	300	1	35
6	1	1	1	1	31	28	440	300	1	35
7	1	1	1	1	35	31	432	300	1	35
8	1	1	1	1	28	24	428	300	1	35
9	1	1	1	1	31	28	423	300	1	35
10	1	1	1	1	31	28	422	300	1	35
11	1	1	1	1	28	24	422	300	1	35
12	1	1	1	1	31	28	423	300	1	35
13	1	1	1	1	31	28	423	300	1	35
14	1	1	1	1	28	28	430	300	1	35
15	1	1	1	1	31	28	433	300	1	35
0	1	1	1	1	28	24	440	300	1	35
1	1	1	1	1	24	24	444	300	1	35
2	1	1	1	1	31	28	449	300	1	35
3	1	1	1	1	28	24	455	300	1	35
4	1	1	1	1	31	28	460	300	1	35
5	1	1	1	1	28	24	463	300	1	35
6	1	1	1	1	28	24	467	300	1	35
7	1	1	1	1	28	24	472	300	1	35
8	1	1	1	1	28	24	473	300	1	35
9	1	1	1	1	27	24	476	300	1	35
10	1	1	1	1	28	24	478	300	1	35
11	1	1	1	1	35	31	480	300	1	35
12	1	1	1	1	24	24	480	300	1	35
13	1	1	1	1	27	24	480	300	1	35
14	1	1	1	1	28	24	478	300	1	35
15	1	1	1	1	28	24	478	300	1	35
0	1	1	1	1	27	24	478	300	1	35
1	1	1	1	1	28	24	478	300	1	35
2	1	1	1	1	35	31	480	300	1	35
3	1	1	1	1	24	25	480	300	1	35
4	1	1	1	1	35	31	480	300	1	35
5	1	1	1	1	27	24	481	300	1	35
6	1	1	1	1	31	28	483	300	1	35
7	1	1	1	1	31	28	487	300	1	35
8	1	1	1	1	28	24	489	300	1	35
9	1	1	1	1	28	24	494	300	1	35
10	1	1	1	1	31	28	496	300	1	35
11	1	1	1	1	27	24	499	300	1	35
12	1	1	1	1	27	24	504	300	1	35
13	1	1	1	1	28	24	508	300	1	35
14	1	1	1	1	24	24	510	300	1	35
15	1	1	1	1	35	31	512	300	1	35
0	1	1	1	1	27	24	515	300	1	35
1	1	1	1	1	31	27	515	300	1	35
2	1	1	1	1	31	28	518	300	1	35
3	1	1	1	1	27	24	519	300	1	35
4	1	1	1	1	27	24	519	300	1	35
5	1	1	1	1	35	31	518	300	1	35
6	1	1	1	1	25	24	518	300	1	35
7	1	1	1	1	24	24	515	300	1	35
8	1	1	1	1	25	24	515	300	1	35
9	1	1	1	1	35	31	513	300	1	35
10	1	1	1	1	31	25	511	300	1	35
11	1	1	1	1	35	31	510	300	1	35
12	1	1	1	1	27	24	505	300	1	35
13	1	1	1	1	35	31	504	300	1	35
14	1	1	1	1	35	31	496	300	1	35
15	1	1	1	1	31	28	492	300	1	35
0	1	1	1	1	27	24	487	300	1	35
1	1	1	1	1	28	24	480	300	1	35
2	1	1	1	1	31	28	476	300	1	35
3	1	1	1	1	31	27	467	300	1	35
4	1	1	1	1	31	28	463	300	1	35
5	1	1	1	1	25	24	460	300	1	35
6	1	1	1	1	27	24	455	300	1	35
7	1	1	1	1	27	24	451	300	1	35
8	1	1	1	1	25	24	448	300	1	35
9	1	1	1	1	31	27	448	300	1	35
10	1	1	1	1	25	24	448	300	1	35
11	1	1	1	1	28	24	448	300	1	35
12	1	1	1	1	27	24	448	300	1	35
13	1	1	1	1	24	24	451	300	1	35
14	1	1	1	1	28	27	455	300	1	35
15	1	1	1	1	28	24	455	300	1	35
0	1	1	1	1	28	24	462	300	1	35
1	1	1	1	1	24	24	463	300	1	35
2	1	1	1	1	31	28	467	300	1	35
3	1	1	1	1	28	19	472	300	1	35
4	1	1	1	1	28	24	473	300	1	35
5	1	1	1	1	28	24	476	300	1	35
6	1	1	1	1	28	24	476	300	1	35
7	1	1	1	1	31	28	476	300	1	35
8	1	1	1	1	28	24	476	300	1	35
9	1	1	1	1	28	24	473	300	1	35
10	1	1	1	1	31	28	472	300	1	35
11	1	1	1	1	24	24	472	300	1	35
12	1	1	1	1	28	24	472	300	1	35
13	1	1	1	1	35	31	467	300	1	35
14	1	1	1	1	31	28	467	300	1	35
15	1	1	1	1	28	24	467	300	1	35
0	1	1	1	1	31	28	467	300	1	35
1	1	1	1	1	31	28	467	300	1	35
2	1	1	1	1	28	24	472	300	1	35
3	1	1	1	1	28	28	472	300	1	35
4	1	1	1	1	31	28	472	300	1	35
5	1	1	1	1	31	28	476	300	1	35
6	1	1	1	1	31	28	478	300	1	35
7	1	1	1	1	28	24	480	300	1	35
8	1	1	1	1	24	24	480	300	1	35
9	1	1	1	1	28	24	481	300	1	35
10	1	1	1	1	31	28	483	300	1	35
11	1	1	1	1	28	24	486	300	1	35
12	1	1	1	1	28	24	487	300	1	35
13	1	1	1	1	28	24	487	300	1	35
14	1	1	1	1	30	28	487	300	1	35
15	1	1	1	1	28	24	487	300	1	35
0	1	1	1	1	28	24	489	300	1	35
1	1	1	1	1	31	28	492	300	1	35
2	1	1	1	1	28	24	494	300	1	35
3	1	1	1	1	28	24	496	300	1	35
4	1	1	1	1	31	28	496	300	1	35
5	1	1	1	1	31	28	499	300	1	35
6	1	1	1	1	31	28	499	300	1	35
7	1	1	1	1	31	28	504	300	1	35
8	1	1	1	1	31	28	504	300	1	35
9	1	1	1	1	28	24	504	300	1	35
10	1	1	1	1	31	28	504	300	1	35
11	1	1	1	1	31	28	504	300	1	35
12	1	1	1	1	31	27	504	300	1	35
13	1	1	1	1	27	24	504	300	1	35
14	1	1	1	1	27	24	499	300	1	35
15	1	1	1	1	27	24	497	300	1	35
0	1	1	1	1	25	24	496	300	1	35
1	1	1	1	1	28	24	492	300	1	35
2	1	1	1	1	28	24	489	300	1	35
3	1	1	1	1	28	24	487	300	1	35
4	1	1	1	1	31	28	487	300	1	35
5	1	1	1	1	27	24	487	300	1	35
6	1	1	1	1	35	31	487	300	1	35
7	1	1	1	1	28	24	487	300	1	35
8	1	1	1	1	28	24	492	300	1	35
9	1	1	1	1	31	28	496	300	1	35
10	1	1	1	1	28	24	502	300	1	35
11	1	1	1	1	31	28	508	300	1	35
12	1	1	1	1	28	24	512	300	1	35
13	1	1	1	1	27	24	519	300	1	35
14	1	1	1	1	24	24	524	300	1	35
15	1	1	1	1	35	31	527	300	1	35
0	1	1	1	1	31	28	531	300	1	35
1	1	1	1	1	35	31	536	300	1	35
2	1	1	1	1	31	28	536	300	1	35
3	1	1	1	1	27	24	536	300	1	35
4	1	1	1	1	31	28	536	300	1	35
5	1	1	1	1	27	24	531	300	1	35
6	1	1	1	1	25	24	527	300	1	35
7	1	1	1	1	31	28	519	300	1	35
8	1	1	1	1	27	24	515	300	1	35
9	1	1	1	1	31	28	511	300	1	35
10	1	1	1	1	28	24	505	300	1	35
11	1	1	1	1	28	24	504	300	1	35
12	1	1	1	1	31	28	502	300	1	35
13	1	1	1	1	28	24	499	300	1	35
14	1	1	1	1	28	24	502	300	1	35
15	1	1	1	1	27	24	504	300	1	35
0	1	1	1	1	27	24	504	300	1	35
1	1	1	1	1	24	24	508	300	1	35
2	1	1	1	1	35	31	511	300	1	35
3	1	1	1	1	24	24	512	300	1	35
4	1	1	1	1	27	24	513	300	1	35
5	1	1	1	1	28	24	513	300	1	35
6	1	1	1	1	35	31	512	300	1	35
7	1	1	1	1	31	28	511	300	1	35
8	1	1	1	1	28	24	508	300	1	35
9	1	1	1	1	24	24	504	300	1	35
10	1	1	1	1	28	24	499	300	1	35
11	1	1	1	1	28	24	496	300	1	35
12	1	1	1	1	28	24	492	300	1	35
13	1	1	1	1	31	28	487	300	1	35
14	1	1	1	1	30	28	483	300	1	35
15	1	1	1	1	28	24	481	300	1	35
0	1	1	1	1	28	24	480	300	1	35
1	1	1	1	1	31	28	480	300	1	35
2	1	1	1	1	28	24	480	300	1	35
3	1	1	1	1	27	24	481	300	1	35
4	1	1	1	1	28	24	483	300	1	35
5	1	1	1	1	28	24	483	300	1	35
6	1	1	1	1	31	28	486	300	1	35
7	1	1	1	1	28	19	487	300	1	35
8	1	1	1	1	35	31	487	300	1	35
9	1	1	1	1	28	24	487	300	1	35
10	1	1	1	1	35	31	487	300	1	35
11	1	1	1	1	35	31	487	300	1	35
12	1	1	1	1	28	24	487	300	1	35
13	1	1	1	1	27	24	487	300	1	35
14	1	1	1	1	31	28	486	300	1	35
15	1	1	1	1	28	24	483	300	1	35
0	1	1	1	1	31	28	483	300	1	35
1	1	1	1	1	28	24	483	300	1	35
2	1	1	1	1	28	24	483	300	1	35
3	1	1	1	1	28	24	483	300	1	35
4	1	1	1	1	28	24	483	300	1	35
5	1	1	1	1	28	24	483	300	1	35
6	1	1	1	1	31	28	483	300	1	35
7	1	1	1	1	31	28	486	300	1	35
8	1	1	1	1	31	28	486	300	1	35
9	1	1	1	1	28	24	487	300	1	35
10	1	1	1	1	28	24	487	300	1	35
11	1	1	1	1	31	28	487	300	1	35
12	1	1	1	1	28	24	487	300	1	35
13	1	1	1	1	28	24	487	300	1	35
14	1	1	1	1	25	24	489	300	1	35
15	1	1	1	1	31	28	492	300	1	35
0	1	1	1	1	28	24	492	300	1	35
1	1	1	1	1	31	28	494	300	1	35
2	1	1	1	1	28	24	494	300	1	35
3	1	1	1	1	28	24	494	300	1	35
4	1	1	1	1	31	28	494	300	1	35
5	1	1	1	1	28	24	492	300	1	35
6	1	1	1	1	28	24	492	300	1	35
7	1	1	1	1	31	28	487	300	1	35
8	1	1	1	1	28	24	487	300	1	35
9	1	1	1	1	25	24	486	300	1	35
10	1	1	1	1	31	28	483	300	1	35
11	1	1	1	1	31	28	480	300	1	35
12	1	1	1	1	35	31	480	300	1	35
13	1	1	1	1	28	24	480	300	1	35
14	1	1	1	1	28	24	478	300	1	35
15	1	1	1	1	28	24	478	300	1	35
0	1	1	1	1	31	28	478	300	1	35
1	1	1	1	1	28	24	480	300	1	35
2	1	1	1	1	35	31	480	300	1	35
3	1	1	1	1	22	24	481	300	1	35
4	1	1	1	1	35	31	484	300	1	35
5	1	1	1	1	31	28	487	300	1	35
6	1	1	1	1	31	28	492	300	1	35
7	1	1	1	1	28	24	496	300	1	35
8	1	1	1	1	31	28	497	300	1	35
9	1	1	1	1	31	28	499	300	1	35
10	1	1	1	1	27	24	504	300	1	35
11	1	1	1	1	31	28	505	300	1	35
12	1	1	1	1	28	24	508	300	1	35
13	1	1	1	1	28	24	510	300	1	35
14	1	1	1	1	24	24	511	300	1	35
15	1	1	1	1	28	24	511	300	1	35
0	1	1	1	1	28	24	510	300	1	35
1	1	1	1	1	24	24	508	300	1	35
2	1	1	1	1	31	28	504	300	1	35
3	1	1	1	1	28	24	502	300	1	35
4	1	1	1	1	28	24	496	300	1	35
5	1	1	1	1	28	24	492	300	1	35
6	1	1	1	1	28	24	487	300	1	35
7	1	1	1	1	28	24	483	300	1	35
8	1	1	1	1	28	24	480	300	1	35
9	1	1	1	1	25	24	476	300	1	35
10	1	1	1	1	28	24	472	300	1	35
11	1	1	1	1	35	31	472	300	1	35
12	1	1	1	1	28	24	470	300	1	35
13	1	1	1	1	28	24	467	300	1	35
14	1	1	1	1	35	31	467	300	1	35
15	1	1	1	1	24	24	470	300	1	35
0	1	1	1	1	28	24	470	300	1	35
1	1	1	1	1	31	28	472	300	1	35
2	1	1	1	1	28	24	472	300	1	35
3	1	1	1	1	31	28	470	300	1	35
4	1	1	1	1	27	24	467	300	1	35
5	1	1	1	1	35	31	463	300	1	35
6	1	1	1	1	24	24	463	300	1	35
7	1	1	1	1	31	28	455	300	1	35
8	1	1	1	1	28	24	451	300	1	35
9	1	1	1	1	28	24	448	300	1	35
10	1	1	1	1	24	24	440	300	1	35
11	1	1	1	1	31	28	432	300	1	35
12	1	1	1	1	28	24	425	300	1	35
13	1	1	1	1	27	24	419	300	1	35
14	1	1	1	1	25	24	415	300	1	35
15	1	1	1	1	31	25	409	300	1	35
0	1	1	1	1	31	28	408	300	1	35
1	1	1	1	1	24	24	408	300	1	35
2	1	1	1	1	31	25	409	300	1	35
3	1	1	1	1	31	25	415	300	1	35
4	1	1	1	1	25	24	423	297	1	35
5	1	1	1	1	25	24	440	300	1	35
6	1	1	1	1	25	24	455	300	1	35
7	1	1	1	1	31	27	480	300	1	35
8	1	1	1	1	27	24	504	300	1	35
9	1	1	1	1	24	24	534	300	1	35
10	1	1	1	1	27	24	568	300	1	35
11	1	1	1	1	31	24	600	300	1	35
12	1	1	1	1	31	28	639	300	1	35
13	1	1	1	1	27	24	679	300	1	35
14	1	1	1	1	27	24	719	300	1	35
15	1	1	1	1	31	28	768	300	1	35
0	1	1	1	1	27	24	807	300	1	35
1	1	1	1	1	28	24	847	300	1	35
2	1	1	1	1	28	24	888	300	1	35
3	1	1	1	1	24	24	927	300	1	35
4	1	1	1	1	28	24	964	300	1	35
5	1	1	1	1	35	31	995	300	1	35
6	1	1	1	1	35	31	1017	300	1	35
7	1	1	1	1	31	28	1020	300	1	35
8	1	1	1	1	28	24	1020	300	1	35
9	1	1	1	1	28	24	1020	300	1	35
10	1	1	1	1	28	24	1020	300	1	35
11	1	1	1	1	31	28	1020	300	1	35
12	1	1	1	1	28	24	1020	300	1	35
13	1	1	1	1	28	24	1020	300	1	35
14	1	1	1	1	24	24	1020	300	1	35
15	1	1	1	1	28	24	1019	300	1	35
0	1	1	1	1	28	24	1004	300	1	35
1	1	1	1	1	24	24	975	300	1	35
2	1	1	1	1	28	24	944	300	1	35
3	1	1	1	1	28	24	899	300	1	35
4	1	1	1	1	28	24	851	300	1	35
5	1	1	1	1	31	28	796	300	1	35
6	1	1	1	1	28	24	736	300	1	35
7	1	1	1	1	28	24	671	300	1	35
8	1	1	1	1	28	24	611	300	1	35
9	1	1	1	1	31	28	551	300	1	35
10	1	1	1	1	31	28	492	300	1	35
11	1	1	1	1	24	24	440	300	1	35
12	1	1	1	1	28	24	391	300	1	35
13	1	1	1	1	28	24	352	300	1	35
14	1	1	1	1	24	24	319	300	1	35
15	1	1	1	1	28	24	295	300	1	35
0	1	1	1	1	35	31	280	300	1	35
1	1	1	1	1	31	27	271	300	1	35
2	1	1	1	1	31	28	270	300	1	35
3	1	1	1	1	24	25	271	300	1	35
4	1	1	1	1	31	28	280	300	1	35
5	1	1	1	1	28	24	287	300	1	35
6	1	1	1	1	35	31	300	300	1	35
7	1	1	1	1	31	28	312	300	1	35
8	1	1	1	1	31	28	327	300	1	35
9	1	1	1	1	28	24	339	300	1	35
10	1	1	1	1	31	28	352	300	1	35
11	1	1	1	1	27	24	366	300	1	35
12	1	1	1	1	28	24	376	300	1	35
13	1	1	1	1	28	24	385	300	1	35
14	1	1	1	1	24	24	391	300	1	35
15	1	1	1	1	28	24	399	300	1	35
0	1	1	1	1	31	28	408	300	1	35
1	1	1	1	1	31	28	409	300	1	35
2	1	1	1	1	28	24	414	300	1	35
3	1	1	1	1	28	24	415	300	1	35
4	1	1	1	1	35	31	415	300	1	35
5	1	1	1	1	28	24	415	300	1	35
6	1	1	1	1	28	24	419	300	1	35
7	1	1	1	1	31	28	419	300	1	35
8	1	1	1	1	28	24	419	300	1	35
9	1	1	1	1	31	28	422	300	1	35
10	1	1	1	1	24	24	423	300	1	35
11	1	1	1	1	35	31	428	300	1	35
12	1	1	1	1	35	31	432	300	1	35
13	1	1	1	1	31	28	435	300	1	35
14	1	1	1	1	28	24	441	300	1	35
15	1	1	1	1	31	28	448	300	1	35
0	1	1	1	1	31	28	455	300	1	35
1	1	1	1	1	28	24	463	300	1	35
2	1	1	1	1	28	24	472	300	1	35
3	1	1	1	1	28	24	476	300	1	35
4	1	1	1	1	28	24	481	300	1	35
5	1	1	1	1	31	28	487	300	1	35
6	1	1	1	1	31	28	492	300	1	35
7	1	1	1	1	28	24	496	300	1	35
8	1	1	1	1	28	24	497	300	1	35
9	1	1	1	1	28	24	499	300	1	35
10	1	1	1	1	35	31	499	300	1	35
11	1	1	1	1	31	28	499	300	1	35
12	1	1	1	1	27	24	499	300	1	35
13	1	1	1	1	27	24	499	300	1	35
14	1	1	1	1	24	24	499	300	1	35
15	1	1	1	1	25	24	499	300	1	35
0	1	1	1	1	31	25	499	300	1	35
1	1	1	1	1	31	25	499	300	1	35
2	1	1	1	1	28	24	499	300	1	35
3	1	1	1	1	31	28	499	300	1	35
4	1	1	1	1	28	24	502	300	1	35
5	1	1	1	1	31	28	504	300	1	35
6	1	1	1	1	28	24	504	300	1	35
7	1	1	1	1	28	24	502	300	1	35
8	1	1	1	1	28	24	499	300	1	35
9	1	1	1	1	25	24	496	300	1	35
10	1	1	1	1	27	24	494	300	1	35
11	1	1	1	1	31	28	487	300	1	35
12	1	1	1	1	28	24	486	300	1	35
13	1	1	1	1	28	24	480	300	1	35
14	1	1	1	1	28	24	476	300	1	35
15	1	1	1	1	27	19	472	300	1	35
0	1	1	1	1	31	25	467	300	1	35
1	1	1	1	1	27	24	463	300	1	35
2	1	1	1	1	28	24	463	300	1	35
3	1	1	1	1	24	24	465	300	1	35
4	1	1	1	1	31	28	467	300	1	35
5	1	1	1	1	31	28	472	300	1	35
6	1	1	1	1	27	24	480	300	1	35
7	1	1	1	1	31	28	486	300	1	35
8	1	1	1	1	28	24	494	300	1	35
9	1	1	1	1	27	24	502	300	1	35
10	1	1	1	1	31	28	510	300	1	35
11	1	1	1	1	27	24	518	300	1	35
12	1	1	1	1	28	24	524	300	1	35
13	1	1	1	1	28	24	531	300	1	35
14	1	1	1	1	30	28	536	300	1	35
15	1	1	1	1	35	31	542	300	1	35
0	1	1	1	1	28	24	543	300	1	35
1	1	1	1	1	31	28	547	300	1	35
2	1	1	1	1	28	24	550	300	1	35
3	1	1	1	1	31	28	550	300	1	35
4	1	1	1	1	28	24	547	300	1	35
5	1	1	1	1	27	24	547	300	1	35
6	1	1	1	1	28	24	543	300	1	35
7	1	1	1	1	31	28	543	300	1	35
8	1	1	1	1	27	24	543	300	1	35
9	1	1	1	1	27	24	542	300	1	35
10	1	1	1	1	31	28	540	300	1	35
11	1	1	1	1	35	31	540	300	1	35
12	1	1	1	1	31	28	537	300	1	35
13	1	1	1	1	28	24	537	300	1	35
14	1	1	1	1	28	24	537	300	1	35
15	1	1	1	1	31	28	537	300	1	35
0	1	1	1	1	31	28	540	300	1	35
1	1	1	1	1	28	24	540	300	1	35
2	1	1	1	1	31	28	540	300	1	35
3	1	1	1	1	31	28	540	300	1	35
4	1	1	1	1	31	28	540	300	1	35
5	1	1	1	1	28	24	540	300	1	35
6	1	1	1	1	31	28	540	300	1	35
7	1	1	1	1	31	28	536	302	1	35
8	1	1	1	1	28	24	536	300	1	35
9	1	1	1	1	28	24	531	302	1	35
10	1	1	1	1	28	24	527	302	1	35
11	1	1	1	1	24	24	527	300	1	35
12	1	1	1	1	28	24	524	300	1	35
13	1	1	1	1	31	28	524	300	1	35
14	1	1	1	1	28	28	524	300	1	35
15	1	1	1	1	28	24	524	300	1	35
0	1	1	1	1	28	24	527	300	1	35
1	1	1	1	1	31	28	531	300	1	35
2	1	1	1	1	24	24	536	302	1	35
3	1	1	1	1	31	28	540	302	1	35
4	1	1	1	1	28	24	543	300	1	35
5	1	1	1	1	28	24	550	300	1	35
6	1	1	1	1	28	24	551	300	1	35
7	1	1	1	1	27	24	556	300	1	35
8	1	1	1	1	31	27	556	300	1	35
9	1	1	1	1	30	27	556	300	1	35
10	1	1	1	1	31	25	556	300	1	35
11	1	1	1	1	31	25	553	300	1	35
12	1	1	1	1	25	24	551	300	1	35
13	1	1	1	1	27	24	547	300	1	35
14	1	1	1	1	25	24	543	300	1	35
15	1	1	1	1	31	25	543	300	1	35
0	1	1	1	1	31	27	540	300	1	35
1	1	1	1	1	27	24	536	300	1	35
2	1	1	1	1	28	24	536	300	1	35
3	1	1	1	1	24	24	536	300	1	35
4	1	1	1	1	28	24	536	300	1	35
5	1	1	1	1	28	24	536	300	1	35
6	1	1	1	1	31	28	536	300	1	35
7	1	1	1	1	28	24	537	300	1	35
8	1	1	1	1	28	24	542	300	1	35
9	1	1	1	1	24	24	543	300	1	35
10	1	1	1	1	28	24	547	300	1	35
11	1	1	1	1	35	31	551	300	1	35
12	1	1	1	1	28	24	553	300	1	35
13	1	1	1	1	24	24	558	300	1	35
14	1	1	1	1	24	24	561	300	1	35
15	1	1	1	1	35	31	566	300	1	35
0	1	1	1	1	31	27	568	300	1	35
1	1	1	1	1	35	31	572	300	1	35
2	1	1	1	1	27	24	575	300	1	35
3	1	1	1	1	25	24	579	300	1	35
4	1	1	1	1	25	24	583	300	1	35
5	1	1	1	1	27	24	588	300	1	35
6	1	1	1	1	24	24	590	300	1	35
7	1	1	1	1	28	24	591	300	1	35
8	1	1	1	1	28	24	595	300	1	35
9	1	1	1	1	35	31	600	300	1	35
10	1	1	1	1	28	24	600	300	1	35
11	1	1	1	1	31	28	601	300	1	35
12	1	1	1	1	28	24	604	300	1	35
13	1	1	1	1	31	28	608	300	1	35
14	1	1	1	1	31	28	608	300	1	35
15	1	1	1	1	31	28	608	300	1	35
0	1	1	1	1	28	24	609	300	1	35
1	1	1	1	1	28	24	609	300	1	35
2	1	1	1	1	31	28	611	300	1	35
3	1	1	1	1	31	24	611	300	1	35
4	1	1	1	1	28	24	611	300	1	35
5	1	1	1	1	28	24	611	300	1	35
6	1	1	1	1	31	28	611	300	1	35
7	1	1	1	1	28	24	611	300	1	35
8	1	1	1	1	28	24	614	300	1	35
9	1	1	1	1	28	24	615	300	1	35
10	1	1	1	1	28	24	620	300	1	35
11	1	1	1	1	35	31	622	300	1	35
12	1	1	1	1	28	24	625	300	1	35
13	1	1	1	1	28	24	632	300	1	35
14	1	1	1	1	25	24	636	300	1	35
15	1	1	1	1	31	28	639	300	1	35
0	1	1	1	1	31	28	639	300	1	35
1	1	1	1	1	35	31	639	300	1	35
2	1	1	1	1	28	24	639	300	1	35
3	1	1	1	1	28	24	639	300	1	35
4	1	1	1	1	28	24	639	300	1	35
5	1	1	1	1	28	24	639	300	1	35
6	1	1	1	1	28	24	638	302	1	35
7	1	1	1	1	31	28	632	300	1	35
8	1	1	1	1	28	24	627	300	1	35
9	1	1	1	1	24	24	624	300	1	35
10	1	1	1	1	31	28	615	300	1	35
11	1	1	1	1	31	28	611	300	1	35
12	1	1	1	1	27	24	608	300	1	35
13	1	1	1	1	28	24	601	300	1	35
14	1	1	1	1	28	24	600	300	1	35
15	1	1	1	1	31	28	593	300	1	35
0	1	1	1	1	24	24	591	300	1	35
1	1	1	1	1	28	24	590	300	1	35
2	1	1	1	1	28	24	588	300	1	35
3	1	1	1	1	25	28	583	300	1	35
4	1	1	1	1	35	31	583	300	1	35
5	1	1	1	1	28	24	583	300	1	35
6	1	1	1	1	35	31	582	300	1	35
7	1	1	1	1	28	24	579	300	1	35
8	1	1	1	1	31	28	575	300	1	35
9	1	1	1	1	31	28	575	300	1	35
10	1	1	1	1	31	28	575	300	1	35
11	1	1	1	1	28	24	575	300	1	35
12	1	1	1	1	31	28	575	300	1	35
13	1	1	1	1	31	28	575	300	1	35
14	1	1	1	1	28	28	575	300	1	35
15	1	1	1	1	27	24	574	300	1	35
0	1	1	1	1	24	24	572	300	1	35
1	1	1	1	1	31	28	572	300	1	35
2	1	1	1	1	35	31	568	300	1	35
3	1	1	1	1	31	28	568	300	1	35
4	1	1	1	1	27	24	563	300	1	35
5	1	1	1	1	24	24	560	300	1	35
6	1	1	1	1	28	24	558	300	1	35
7	1	1	1	1	31	28	551	300	1	35
8	1	1	1	1	27	24	550	300	1	35
9	1	1	1	1	25	24	543	300	1	35
10	1	1	1	1	28	24	540	300	1	35
11	1	1	1	1	24	24	536	300	1	35
12	1	1	1	1	28	24	527	300	1	35
13	1	1	1	1	24	24	524	300	1	35
14	1	1	1	1	28	24	518	300	1	35
15	1	1	1	1	25	24	512	300	1	35
0	1	1	1	1	28	24	508	300	1	35
1	1	1	1	1	31	28	504	300	1	35
2	1	1	1	1	27	24	497	300	1	35
3	1	1	1	1	24	28	494	300	1	35
4	1	1	1	1	25	24	492	300	1	35
5	1	1	1	1	35	31	487	300	1	35
6	1	1	1	1	35	31	486	300	1	35
7	1	1	1	1	28	24	483	300	1	35
8	1	1	1	1	24	24	483	300	1	35
9	1	1	1	1	27	24	481	300	1	35
10	1	1	1	1	27	24	480	300	1	35
11	1	1	1	1	27	24	480	300	1	35
