# OpenSignals Text File Format
# {"98:D3:31:B2:BC:63":{"sensor":["RAW","RAW","RAW","RAW","RAW","RAW"],"device name":"98:D3:31:B2:BC:63","column":["nSeq","I1","I2","O1","O2","A1","A2","A3","A4","A5","A6"],"sync interval":2,"time":"12:47:02","comments":"","device connection":"BTH98:D3:31:B2:BC:63","channels":[1,2,3,4,5,6],"date":"2020-02-14","mode":0,"digital IO":[0,0,1,1],"firmware version":"0","device":"bitalino","position":0,"sampling rate":1000,"label":["A1","A2","A3","A4","A5","A6"],"resolution":[10,10,10,10,6,6],"special":[{},{},{},{},{},{}]}}
# EndOfHeader
0	1	1	1	1	25	24	540	319	1	35
1	1	1	1	1	28	24	540	319	1	35
2	1	1	1	1	28	24	542	319	1	35
3	1	1	1	1	24	24	543	319	1	35
4	1	1	1	1	38	30	543	319	2	35
5	1	1	1	1	28	24	547	319	1	35
6	1	1	1	1	31	28	550	319	1	35
7	1	1	1	1	31	28	551	319	1	35
8	1	1	1	1	28	24	553	319	1	35
9	1	1	1	1	28	24	556	319	1	35
10	1	1	1	1	31	28	558	319	1	35
11	1	1	1	1	28	24	560	318	1	35
12	1	1	1	1	28	24	561	318	1	35
13	1	1	1	1	28	24	563	318	1	35
14	1	1	1	1	25	24	568	316	1	35
15	1	1	1	1	28	24	568	316	1	35
0	1	1	1	1	31	28	568	316	1	35
1	1	1	1	1	24	24	572	316	1	35
2	1	1	1	1	28	24	574	316	1	35
3	1	1	1	1	28	24	575	313	1	35
4	1	1	1	1	24	24	575	313	1	35
5	1	1	1	1	28	24	579	313	1	35
6	1	1	1	1	24	24	583	313	1	35
7	1	1	1	1	28	24	583	312	1	35
8	1	1	1	1	28	24	588	312	1	35
9	1	1	1	1	31	25	591	312	1	35
10	1	1	1	1	28	24	591	312	1	35
11	1	1	1	1	24	24	595	312	1	35
12	1	1	1	1	28	24	600	312	1	35
13	1	1	1	1	31	25	600	312	1	35
14	1	1	1	1	38	30	600	312	1	35
15	1	1	1	1	28	24	604	312	1	35
0	1	1	1	1	28	24	606	312	1	35
1	1	1	1	1	28	24	608	312	1	35
2	1	1	1	1	31	25	608	312	1	35
3	1	1	1	1	31	25	609	312	1	35
4	1	1	1	1	28	24	611	312	1	35
5	1	1	1	1	28	24	614	312	1	35
6	1	1	1	1	28	24	615	312	1	35
7	1	1	1	1	38	30	615	312	1	35
8	1	1	1	1	31	25	620	312	1	35
9	1	1	1	1	28	24	620	312	1	35
10	1	1	1	1	28	24	622	312	1	35
11	1	1	1	1	28	24	624	312	1	35
12	1	1	1	1	28	24	624	312	1	35
13	1	1	1	1	28	24	624	312	1	35
14	1	1	1	1	25	24	624	312	1	35
15	1	1	1	1	31	25	624	312	1	35
0	1	1	1	1	28	24	624	310	1	35
1	1	1	1	1	24	24	624	310	1	35
2	1	1	1	1	35	28	622	307	1	35
3	1	1	1	1	28	24	620	307	1	35
4	1	1	1	1	28	24	615	307	1	35
5	1	1	1	1	35	28	615	307	1	35
6	1	1	1	1	31	25	614	307	1	35
7	1	1	1	1	28	24	611	305	1	35
8	1	1	1	1	28	24	608	305	1	35
9	1	1	1	1	35	28	608	305	1	35
10	1	1	1	1	28	24	604	305	1	35
11	1	1	1	1	28	24	600	305	1	35
12	1	1	1	1	24	24	600	305	1	35
13	1	1	1	1	24	24	595	305	1	35
14	1	1	1	1	28	24	591	307	1	35
15	1	1	1	1	28	24	591	307	1	35
0	1	1	1	1	28	24	588	305	1	35
1	1	1	1	1	31	25	583	305	1	35
2	1	1	1	1	28	24	579	307	1	35
3	1	1	1	1	31	25	575	307	1	35
4	1	1	1	1	31	25	572	307	1	35
5	1	1	1	1	28	24	568	307	1	35
6	1	1	1	1	28	24	563	307	1	35
7	1	1	1	1	31	25	560	307	1	35
8	1	1	1	1	35	28	556	307	1	35
9	1	1	1	1	31	25	551	307	1	35
10	1	1	1	1	28	24	547	307	1	35
11	1	1	1	1	28	24	543	307	1	35
12	1	1	1	1	31	25	540	307	1	35
13	1	1	1	1	28	24	536	307	1	35
14	1	1	1	1	24	24	531	310	1	35
15	1	1	1	1	31	25	527	310	1	35
0	1	1	1	1	24	24	527	310	1	35
1	1	1	1	1	28	24	524	310	1	35
2	1	1	1	1	28	24	519	310	1	35
3	1	1	1	1	28	24	519	310	1	35
4	1	1	1	1	28	24	515	310	1	35
5	1	1	1	1	28	24	512	312	1	35
6	1	1	1	1	28	24	510	312	1	35
7	1	1	1	1	28	24	508	312	1	35
8	1	1	1	1	31	25	504	312	1	35
9	1	1	1	1	28	24	500	312	1	35
10	1	1	1	1	36	28	497	312	1	35
11	1	1	1	1	24	24	496	312	1	35
12	1	1	1	1	24	24	492	312	1	35
13	1	1	1	1	31	25	487	312	1	35
14	1	1	1	1	28	24	487	312	1	35
15	1	1	1	1	36	28	483	312	1	35
0	1	1	1	1	28	24	481	312	1	35
1	1	1	1	1	24	24	480	312	1	35
2	1	1	1	1	38	28	480	312	1	35
3	1	1	1	1	28	23	478	312	1	35
4	1	1	1	1	28	24	476	312	1	35
5	1	1	1	1	28	24	476	312	1	35
6	1	1	1	1	28	24	473	312	1	35
7	1	1	1	1	31	25	472	312	1	35
8	1	1	1	1	28	24	472	312	1	35
9	1	1	1	1	28	24	472	312	1	35
10	1	1	1	1	28	24	472	312	1	35
11	1	1	1	1	31	25	472	312	1	35
12	1	1	1	1	31	25	472	312	1	35
13	1	1	1	1	28	24	472	312	1	35
14	1	1	1	1	35	30	472	312	1	35
15	1	1	1	1	28	24	472	313	1	35
0	1	1	1	1	24	24	472	313	1	35
1	1	1	1	1	28	24	470	312	1	35
2	1	1	1	1	38	28	467	312	1	35
3	1	1	1	1	28	24	467	312	1	35
4	1	1	1	1	31	25	467	312	1	35
5	1	1	1	1	28	24	467	312	1	35
6	1	1	1	1	28	24	465	312	1	35
7	1	1	1	1	28	24	465	312	1	35
8	1	1	1	1	31	25	465	312	1	35
9	1	1	1	1	28	24	465	312	1	35
10	1	1	1	1	28	24	465	312	1	35
11	1	1	1	1	24	24	465	312	1	35
12	1	1	1	1	31	25	467	312	1	35
13	1	1	1	1	28	24	467	312	1	35
14	1	1	1	1	31	25	467	312	1	35
15	1	1	1	1	31	25	467	312	1	35
0	1	1	1	1	31	25	467	312	1	35
1	1	1	1	1	28	24	467	312	1	35
2	1	1	1	1	31	25	470	312	1	35
3	1	1	1	1	31	25	472	312	1	35
4	1	1	1	1	28	24	472	312	1	35
5	1	1	1	1	31	25	472	312	1	35
6	1	1	1	1	24	24	472	312	1	35
7	1	1	1	1	28	24	472	312	1	35
8	1	1	1	1	28	24	472	312	1	35
9	1	1	1	1	28	24	472	312	1	35
10	1	1	1	1	28	24	472	312	1	35
11	1	1	1	1	24	24	472	312	1	35
12	1	1	1	1	28	24	472	312	1	35
13	1	1	1	1	28	24	472	312	1	35
14	1	1	1	1	24	24	472	312	1	35
15	1	1	1	1	31	25	472	313	1	35
0	1	1	1	1	28	24	472	312	1	35
1	1	1	1	1	24	24	472	312	1	35
2	1	1	1	1	31	25	472	312	1	35
3	1	1	1	1	31	25	470	312	1	35
4	1	1	1	1	31	25	467	312	1	35
5	1	1	1	1	24	24	467	312	1	35
6	1	1	1	1	38	28	465	312	1	35
7	1	1	1	1	28	24	463	312	1	35
8	1	1	1	1	28	24	463	312	1	35
9	1	1	1	1	28	24	463	312	1	35
10	1	1	1	1	28	24	463	312	1	35
11	1	1	1	1	31	25	463	312	1	35
12	1	1	1	1	28	24	463	312	1	35
13	1	1	1	1	24	24	463	312	1	35
14	1	1	1	1	31	25	463	312	1	35
15	1	1	1	1	28	24	463	312	1	35
0	1	1	1	1	31	25	463	312	1	35
1	1	1	1	1	24	24	463	312	1	35
2	1	1	1	1	38	28	463	312	1	35
3	1	1	1	1	28	25	463	312	1	35
4	1	1	1	1	28	24	465	312	1	35
5	1	1	1	1	28	24	467	312	1	35
6	1	1	1	1	24	24	467	312	1	35
7	1	1	1	1	31	25	467	312	1	35
8	1	1	1	1	28	24	467	312	1	35
9	1	1	1	1	28	24	465	312	1	35
10	1	1	1	1	28	24	465	312	1	35
11	1	1	1	1	31	25	463	312	1	35
12	1	1	1	1	28	24	463	312	1	35
13	1	1	1	1	31	25	463	312	1	35
14	1	1	1	1	25	24	462	312	1	35
15	1	1	1	1	28	24	462	312	1	35
0	1	1	1	1	28	24	460	312	1	35
1	1	1	1	1	28	24	460	312	1	35
2	1	1	1	1	28	24	460	312	1	35
3	1	1	1	1	28	24	460	312	1	35
4	1	1	1	1	31	25	460	310	1	35
5	1	1	1	1	31	25	460	310	1	35
6	1	1	1	1	31	25	460	310	1	35
7	1	1	1	1	24	24	460	310	1	35
8	1	1	1	1	28	24	462	308	1	35
9	1	1	1	1	28	24	462	308	1	35
10	1	1	1	1	24	24	463	307	1	35
11	1	1	1	1	31	25	463	307	1	35
12	1	1	1	1	35	28	463	307	1	35
13	1	1	1	1	28	24	463	307	1	35
14	1	1	1	1	31	25	463	307	1	35
15	1	1	1	1	28	24	463	307	1	35
0	1	1	1	1	31	25	463	308	1	35
1	1	1	1	1	31	25	465	308	1	35
2	1	1	1	1	28	24	465	307	1	35
3	1	1	1	1	28	24	467	307	1	35
4	1	1	1	1	28	24	467	310	1	35
5	1	1	1	1	28	24	467	310	1	35
6	1	1	1	1	28	24	467	310	1	35
7	1	1	1	1	28	22	467	310	1	35
8	1	1	1	1	28	24	467	310	1	35
9	1	1	1	1	35	28	467	312	1	35
10	1	1	1	1	24	24	467	312	1	35
11	1	1	1	1	28	24	465	312	1	35
12	1	1	1	1	31	25	465	312	1	35
13	1	1	1	1	28	24	463	312	1	35
14	1	1	1	1	24	24	463	312	1	35
15	1	1	1	1	28	24	463	312	1	35
0	1	1	1	1	28	24	463	312	1	35
1	1	1	1	1	28	24	463	312	1	35
2	1	1	1	1	31	25	463	312	1	35
3	1	1	1	1	28	24	465	312	1	35
4	1	1	1	1	24	24	467	312	1	35
5	1	1	1	1	36	28	467	312	1	35
6	1	1	1	1	28	24	470	312	1	35
7	1	1	1	1	28	24	472	312	1	35
8	1	1	1	1	31	25	472	312	1	35
9	1	1	1	1	25	24	472	312	1	35
10	1	1	1	1	28	24	472	312	1	35
11	1	1	1	1	24	24	472	312	1	35
12	1	1	1	1	31	25	472	312	1	35
13	1	1	1	1	28	24	472	312	1	35
14	1	1	1	1	31	25	472	312	1	35
15	1	1	1	1	38	28	472	312	1	35
0	1	1	1	1	28	24	472	312	1	35
1	1	1	1	1	28	24	470	312	1	35
2	1	1	1	1	28	24	467	312	1	35
3	1	1	1	1	24	24	467	312	1	35
4	1	1	1	1	28	24	465	312	1	35
5	1	1	1	1	28	24	465	312	1	35
6	1	1	1	1	24	24	463	312	1	35
7	1	1	1	1	28	24	463	312	1	35
8	1	1	1	1	28	24	463	312	1	35
9	1	1	1	1	28	24	465	312	1	35
10	1	1	1	1	28	24	467	312	1	35
11	1	1	1	1	28	24	467	312	1	35
12	1	1	1	1	28	24	467	312	1	35
13	1	1	1	1	28	24	472	312	1	35
14	1	1	1	1	31	25	472	312	1	35
15	1	1	1	1	24	24	472	312	1	35
0	1	1	1	1	28	24	476	312	1	35
1	1	1	1	1	24	24	476	312	1	35
2	1	1	1	1	31	25	480	312	1	35
3	1	1	1	1	24	24	480	312	1	35
4	1	1	1	1	28	24	480	312	1	35
5	1	1	1	1	36	28	481	312	1	35
6	1	1	1	1	28	24	481	312	1	35
7	1	1	1	1	24	24	483	312	1	35
8	1	1	1	1	28	24	483	312	1	35
9	1	1	1	1	36	28	483	312	1	35
10	1	1	1	1	28	24	483	312	1	35
11	1	1	1	1	28	24	481	312	1	35
12	1	1	1	1	31	25	481	310	1	35
13	1	1	1	1	28	24	480	310	1	35
14	1	1	1	1	28	24	480	310	1	35
15	1	1	1	1	31	25	480	310	1	35
0	1	1	1	1	31	25	480	310	1	35
1	1	1	1	1	28	24	480	310	1	35
2	1	1	1	1	28	24	480	310	1	35
3	1	1	1	1	31	25	480	310	1	35
4	1	1	1	1	31	25	481	310	1	35
5	1	1	1	1	28	24	483	310	1	35
6	1	1	1	1	35	28	483	310	1	35
7	1	1	1	1	31	25	486	312	1	35
8	1	1	1	1	28	24	487	312	1	35
9	1	1	1	1	28	24	487	312	1	35
10	1	1	1	1	31	25	487	312	1	35
11	1	1	1	1	28	24	489	312	1	35
12	1	1	1	1	36	28	492	312	1	35
13	1	1	1	1	28	24	492	312	1	35
14	1	1	1	1	24	24	492	310	1	35
15	1	1	1	1	28	24	492	312	1	35
0	1	1	1	1	31	25	492	310	1	35
1	1	1	1	1	24	24	492	310	1	35
2	1	1	1	1	31	25	492	310	1	35
3	1	1	1	1	28	24	492	310	1	35
4	1	1	1	1	31	25	492	310	1	35
5	1	1	1	1	28	24	492	310	1	35
6	1	1	1	1	31	25	492	310	1	35
7	1	1	1	1	28	24	492	310	1	35
8	1	1	1	1	28	24	492	310	1	35
9	1	1	1	1	28	24	492	310	1	35
10	1	1	1	1	31	25	492	310	1	35
11	1	1	1	1	35	28	492	310	1	35
12	1	1	1	1	31	25	494	310	1	35
13	1	1	1	1	28	24	494	310	1	35
14	1	1	1	1	28	24	494	310	1	35
15	1	1	1	1	24	24	492	310	1	35
0	1	1	1	1	31	25	492	310	1	35
1	1	1	1	1	24	24	492	310	1	35
2	1	1	1	1	28	24	492	310	1	35
3	1	1	1	1	28	25	492	310	1	35
4	1	1	1	1	28	24	492	308	1	35
5	1	1	1	1	31	25	489	308	1	35
6	1	1	1	1	28	24	489	308	1	35
7	1	1	1	1	24	24	487	308	1	35
8	1	1	1	1	28	24	487	308	1	35
9	1	1	1	1	28	24	487	307	1	35
10	1	1	1	1	28	24	487	310	1	35
11	1	1	1	1	28	22	489	310	1	35
12	1	1	1	1	31	25	489	310	1	35
13	1	1	1	1	31	25	489	310	1	35
14	1	1	1	1	24	24	492	310	1	35
15	1	1	1	1	28	24	492	310	1	35
0	1	1	1	1	28	24	492	310	1	35
1	1	1	1	1	28	24	492	312	1	35
2	1	1	1	1	31	25	492	312	1	35
3	1	1	1	1	28	24	494	312	1	35
4	1	1	1	1	28	24	494	312	1	35
5	1	1	1	1	28	24	494	312	1	35
6	1	1	1	1	28	24	494	310	1	35
7	1	1	1	1	28	24	494	312	1	35
8	1	1	1	1	28	24	494	312	1	35
9	1	1	1	1	28	24	496	312	1	35
10	1	1	1	1	28	24	496	312	1	35
11	1	1	1	1	24	24	496	310	1	35
12	1	1	1	1	28	24	496	310	1	35
13	1	1	1	1	28	24	496	310	1	35
14	1	1	1	1	31	25	496	310	1	35
15	1	1	1	1	28	24	496	310	1	35
0	1	1	1	1	28	24	496	310	1	35
1	1	1	1	1	24	24	496	310	1	35
2	1	1	1	1	31	25	496	310	1	35
3	1	1	1	1	28	24	496	310	1	35
4	1	1	1	1	35	28	496	310	1	35
5	1	1	1	1	28	24	496	310	1	35
6	1	1	1	1	35	28	496	312	1	35
7	1	1	1	1	31	25	496	312	1	35
8	1	1	1	1	28	24	496	312	1	35
9	1	1	1	1	24	24	496	312	1	35
10	1	1	1	1	28	24	494	312	1	35
11	1	1	1	1	31	25	492	312	1	35
12	1	1	1	1	28	24	492	312	1	35
13	1	1	1	1	28	24	492	312	1	35
14	1	1	1	1	28	25	492	312	1	35
15	1	1	1	1	31	25	492	312	1	35
0	1	1	1	1	31	25	492	312	1	35
1	1	1	1	1	28	24	492	312	1	35
2	1	1	1	1	28	24	492	312	1	35
3	1	1	1	1	28	24	494	312	1	35
4	1	1	1	1	28	24	496	312	1	35
5	1	1	1	1	28	24	496	312	1	35
6	1	1	1	1	28	24	496	312	1	35
7	1	1	1	1	31	25	497	312	1	35
8	1	1	1	1	28	24	499	312	1	35
9	1	1	1	1	24	24	499	312	1	35
10	1	1	1	1	31	25	499	312	1	35
11	1	1	1	1	28	24	499	312	1	35
12	1	1	1	1	28	24	499	312	1	35
13	1	1	1	1	28	24	499	312	1	35
14	1	1	1	1	38	28	497	312	1	35
15	1	1	1	1	28	24	496	312	1	35
0	1	1	1	1	28	24	496	312	1	35
1	1	1	1	1	28	24	494	312	1	35
2	1	1	1	1	31	25	492	312	1	35
3	1	1	1	1	31	25	492	312	1	35
4	1	1	1	1	28	24	489	312	1	35
5	1	1	1	1	28	24	489	312	1	35
6	1	1	1	1	24	24	487	312	1	35
7	1	1	1	1	28	24	487	312	1	35
8	1	1	1	1	28	24	489	312	1	35
9	1	1	1	1	24	24	489	312	1	35
10	1	1	1	1	28	24	492	312	1	35
11	1	1	1	1	28	24	492	312	1	35
12	1	1	1	1	31	25	492	312	1	35
13	1	1	1	1	28	24	492	312	1	35
14	1	1	1	1	34	28	494	312	1	35
15	1	1	1	1	28	24	494	312	1	35
0	1	1	1	1	28	24	496	312	1	35
1	1	1	1	1	24	24	496	312	1	35
2	1	1	1	1	31	25	496	312	1	35
3	1	1	1	1	28	24	496	312	1	35
4	1	1	1	1	28	24	496	312	1	35
5	1	1	1	1	28	24	496	312	1	35
6	1	1	1	1	31	25	496	312	1	35
7	1	1	1	1	35	28	496	312	1	35
8	1	1	1	1	28	24	496	312	1	35
9	1	1	1	1	24	24	496	312	1	35
10	1	1	1	1	28	24	496	312	1	35
11	1	1	1	1	28	24	494	310	1	35
12	1	1	1	1	28	24	494	312	1	35
13	1	1	1	1	28	24	494	310	1	35
14	1	1	1	1	28	24	494	312	1	35
15	1	1	1	1	28	24	494	312	1	35
0	1	1	1	1	28	24	494	312	1	35
1	1	1	1	1	28	24	494	312	1	35
2	1	1	1	1	24	24	494	312	1	35
3	1	1	1	1	28	25	494	312	1	35
4	1	1	1	1	28	24	492	312	1	35
5	1	1	1	1	28	24	492	312	1	35
6	1	1	1	1	36	28	492	312	1	35
7	1	1	1	1	24	24	492	312	1	35
8	1	1	1	1	28	24	492	312	1	35
9	1	1	1	1	24	24	492	312	1	35
10	1	1	1	1	28	24	492	312	1	35
11	1	1	1	1	28	24	492	312	1	35
12	1	1	1	1	31	25	492	312	1	35
13	1	1	1	1	36	28	492	312	1	35
14	1	1	1	1	31	28	492	312	1	35
15	1	1	1	1	28	22	492	312	1	35
0	1	1	1	1	30	24	492	312	1	35
1	1	1	1	1	31	25	492	312	1	35
2	1	1	1	1	31	25	492	312	1	35
3	1	1	1	1	28	24	492	312	1	35
4	1	1	1	1	28	24	492	312	1	35
5	1	1	1	1	28	24	492	312	1	35
6	1	1	1	1	28	24	492	312	1	35
7	1	1	1	1	28	24	492	312	1	35
8	1	1	1	1	28	24	492	312	1	35
9	1	1	1	1	28	24	492	310	1	35
10	1	1	1	1	31	25	492	310	1	35
11	1	1	1	1	31	25	489	310	1	35
12	1	1	1	1	31	25	489	310	1	35
13	1	1	1	1	28	24	487	310	1	35
14	1	1	1	1	28	24	487	307	1	35
15	1	1	1	1	31	25	487	307	1	35
0	1	1	1	1	24	24	487	307	1	35
1	1	1	1	1	28	24	487	307	1	35
2	1	1	1	1	28	24	487	307	1	35
3	1	1	1	1	35	28	487	307	1	35
4	1	1	1	1	28	24	489	307	1	35
5	1	1	1	1	28	24	489	307	1	35
6	1	1	1	1	31	25	489	307	1	35
7	1	1	1	1	28	24	492	307	1	35
8	1	1	1	1	28	24	492	307	1	35
9	1	1	1	1	28	24	492	307	1	35
10	1	1	1	1	31	25	492	307	1	35
11	1	1	1	1	28	24	492	307	1	35
12	1	1	1	1	31	25	492	307	1	35
13	1	1	1	1	31	25	489	307	1	35
14	1	1	1	1	24	24	491	307	1	35
15	1	1	1	1	31	25	492	307	1	35
0	1	1	1	1	31	25	492	310	1	35
1	1	1	1	1	31	25	492	310	1	35
2	1	1	1	1	28	24	492	310	1	35
3	1	1	1	1	28	24	492	312	1	35
4	1	1	1	1	28	24	492	312	1	35
5	1	1	1	1	24	24	494	312	1	35
6	1	1	1	1	31	25	494	312	1	35
7	1	1	1	1	28	24	495	312	1	35
8	1	1	1	1	28	24	496	312	1	35
9	1	1	1	1	28	24	496	312	1	35
10	1	1	1	1	28	24	496	312	1	35
11	1	1	1	1	28	24	494	312	1	35
12	1	1	1	1	36	28	494	312	1	35
13	1	1	1	1	28	24	494	312	1	35
14	1	1	1	1	24	24	492	312	1	35
15	1	1	1	1	31	25	492	312	1	35
0	1	1	1	1	31	25	489	312	1	35
1	1	1	1	1	28	24	487	312	1	35
2	1	1	1	1	31	25	487	312	1	35
3	1	1	1	1	22	24	487	312	1	35
4	1	1	1	1	35	28	487	312	1	35
5	1	1	1	1	31	25	487	312	1	35
6	1	1	1	1	35	28	487	312	1	35
7	1	1	1	1	28	24	487	312	1	35
8	1	1	1	1	31	25	487	312	1	35
9	1	1	1	1	28	24	487	312	1	35
10	1	1	1	1	31	25	487	312	1	35
11	1	1	1	1	28	24	487	312	1	35
12	1	1	1	1	28	24	492	312	1	35
13	1	1	1	1	31	25	492	312	1	35
14	1	1	1	1	24	24	494	312	1	35
15	1	1	1	1	28	24	494	312	1	35
0	1	1	1	1	31	25	496	312	1	35
1	1	1	1	1	24	24	496	312	1	35
2	1	1	1	1	28	24	496	312	1	35
3	1	1	1	1	28	24	496	312	1	35
4	1	1	1	1	28	24	494	312	1	35
5	1	1	1	1	28	24	492	312	1	35
6	1	1	1	1	28	24	492	312	1	35
7	1	1	1	1	28	24	489	312	1	35
8	1	1	1	1	24	24	487	312	1	35
9	1	1	1	1	31	25	487	312	1	35
10	1	1	1	1	28	24	487	312	1	35
11	1	1	1	1	28	24	487	312	1	35
12	1	1	1	1	28	24	486	312	1	35
13	1	1	1	1	28	24	487	312	1	35
14	1	1	1	1	31	25	487	312	1	35
15	1	1	1	1	28	24	487	312	1	35
0	1	1	1	1	28	24	487	312	1	35
1	1	1	1	1	36	28	487	312	1	35
2	1	1	1	1	31	25	489	312	1	35
3	1	1	1	1	28	24	492	312	1	35
4	1	1	1	1	28	24	492	312	1	35
5	1	1	1	1	24	24	494	312	1	35
6	1	1	1	1	28	24	495	312	1	35
7	1	1	1	1	38	28	496	312	1	35
8	1	1	1	1	31	25	496	312	1	35
9	1	1	1	1	28	24	496	312	1	35
10	1	1	1	1	28	24	496	312	1	35
11	1	1	1	1	28	24	496	312	1	35
12	1	1	1	1	31	25	496	312	1	35
13	1	1	1	1	31	25	496	312	1	35
14	1	1	1	1	24	24	496	312	1	35
15	1	1	1	1	28	24	496	312	1	35
0	1	1	1	1	28	24	496	312	1	35
1	1	1	1	1	24	24	496	312	1	35
2	1	1	1	1	28	24	496	312	1	35
3	1	1	1	1	31	24	496	312	1	35
4	1	1	1	1	28	24	496	312	1	35
5	1	1	1	1	31	25	496	312	1	35
6	1	1	1	1	28	24	496	312	1	35
7	1	1	1	1	28	24	496	312	1	35
8	1	1	1	1	28	24	496	312	1	35
9	1	1	1	1	31	25	496	312	1	35
10	1	1	1	1	28	24	496	312	1	35
11	1	1	1	1	28	24	495	312	1	35
12	1	1	1	1	28	24	494	312	1	35
13	1	1	1	1	28	24	494	312	1	35
14	1	1	1	1	28	24	494	312	1	35
15	1	1	1	1	31	25	492	312	1	35
0	1	1	1	1	31	25	492	312	1	35
1	1	1	1	1	31	25	492	312	1	35
2	1	1	1	1	28	24	492	312	1	35
3	1	1	1	1	24	24	492	312	1	35
4	1	1	1	1	36	28	492	312	1	35
5	1	1	1	1	28	24	492	312	1	35
6	1	1	1	1	28	24	492	312	1	35
7	1	1	1	1	28	24	494	312	1	35
8	1	1	1	1	31	25	494	312	1	35
9	1	1	1	1	28	24	496	312	1	35
10	1	1	1	1	31	25	496	312	1	35
11	1	1	1	1	28	24	496	312	1	35
12	1	1	1	1	28	24	496	312	1	35
13	1	1	1	1	28	24	496	312	1	35
14	1	1	1	1	25	24	496	312	1	35
15	1	1	1	1	31	25	496	312	1	35
0	1	1	1	1	24	24	496	312	1	35
1	1	1	1	1	24	24	496	310	1	35
2	1	1	1	1	28	24	496	310	1	35
3	1	1	1	1	28	24	496	310	1	35
4	1	1	1	1	28	24	496	310	1	35
5	1	1	1	1	31	25	496	310	1	35
6	1	1	1	1	24	24	496	310	1	35
7	1	1	1	1	28	24	496	310	1	35
8	1	1	1	1	28	24	496	310	1	35
9	1	1	1	1	28	24	496	310	1	35
10	1	1	1	1	28	24	496	310	1	35
11	1	1	1	1	28	24	496	310	1	35
12	1	1	1	1	31	25	496	310	1	35
13	1	1	1	1	28	24	496	310	1	35
14	1	1	1	1	28	24	496	310	1	35
15	1	1	1	1	28	24	495	310	1	35
0	1	1	1	1	28	24	494	310	1	35
1	1	1	1	1	28	24	494	312	1	35
2	1	1	1	1	36	28	494	312	1	35
3	1	1	1	1	28	24	494	312	1	35
4	1	1	1	1	24	24	494	312	1	35
5	1	1	1	1	28	24	492	312	1	35
6	1	1	1	1	28	24	492	312	1	35
7	1	1	1	1	28	24	492	312	1	35
8	1	1	1	1	28	24	492	312	1	35
9	1	1	1	1	31	25	492	312	1	35
10	1	1	1	1	28	24	492	312	1	35
11	1	1	1	1	28	24	492	312	1	35
12	1	1	1	1	28	24	492	312	1	35
13	1	1	1	1	31	25	494	312	1	35
14	1	1	1	1	28	25	494	312	1	35
15	1	1	1	1	31	24	496	312	1	35
0	1	1	1	1	31	25	496	312	1	35
1	1	1	1	1	24	24	496	312	1	35
2	1	1	1	1	28	24	497	312	1	35
3	1	1	1	1	28	24	499	312	1	35
4	1	1	1	1	31	25	499	312	1	35
5	1	1	1	1	28	24	504	312	1	35
6	1	1	1	1	28	24	504	312	1	35
7	1	1	1	1	28	24	504	312	1	35
8	1	1	1	1	28	24	504	312	1	35
9	1	1	1	1	28	24	504	312	1	35
10	1	1	1	1	31	25	504	312	1	35
11	1	1	1	1	28	24	504	312	1	35
12	1	1	1	1	28	24	504	312	1	35
13	1	1	1	1	28	24	504	312	1	35
14	1	1	1	1	31	25	504	312	1	35
15	1	1	1	1	28	24	504	312	1	35
0	1	1	1	1	28	24	504	312	1	35
1	1	1	1	1	28	24	504	312	1	35
2	1	1	1	1	31	25	502	312	1	35
3	1	1	1	1	28	25	502	312	1	35
4	1	1	1	1	28	24	502	312	1	35
5	1	1	1	1	31	25	502	312	1	35
6	1	1	1	1	24	24	504	312	1	35
7	1	1	1	1	31	25	504	312	1	35
8	1	1	1	1	31	25	504	312	1	35
9	1	1	1	1	28	24	504	312	1	35
10	1	1	1	1	28	24	504	312	1	35
11	1	1	1	1	31	25	505	312	1	35
12	1	1	1	1	36	28	508	312	1	35
13	1	1	1	1	28	24	508	312	1	35
14	1	1	1	1	24	24	511	312	1	35
15	1	1	1	1	28	24	511	312	1	35
0	1	1	1	1	28	24	512	312	1	35
1	1	1	1	1	28	24	513	312	1	35
2	1	1	1	1	24	24	515	312	1	35
3	1	1	1	1	28	24	515	312	1	35
4	1	1	1	1	28	24	518	312	1	35
5	1	1	1	1	28	24	519	312	1	35
6	1	1	1	1	28	24	519	312	1	35
7	1	1	1	1	28	22	519	310	1	35
8	1	1	1	1	28	24	519	310	1	35
9	1	1	1	1	28	24	521	310	1	35
10	1	1	1	1	31	25	524	310	1	35
11	1	1	1	1	31	25	524	312	1	35
12	1	1	1	1	31	25	524	312	1	35
13	1	1	1	1	28	24	524	312	1	35
14	1	1	1	1	28	24	524	310	1	35
15	1	1	1	1	28	24	524	312	1	35
0	1	1	1	1	31	25	524	312	1	35
1	1	1	1	1	24	24	524	312	1	35
2	1	1	1	1	36	28	521	312	1	35
3	1	1	1	1	28	24	519	312	1	35
4	1	1	1	1	24	24	519	312	1	35
5	1	1	1	1	28	24	519	312	1	35
6	1	1	1	1	31	25	518	312	1	35
7	1	1	1	1	31	25	515	312	1	35
8	1	1	1	1	28	24	515	312	1	35
9	1	1	1	1	28	24	515	312	1	35
10	1	1	1	1	31	25	515	312	1	35
11	1	1	1	1	31	25	513	312	1	35
12	1	1	1	1	28	24	513	312	1	35
13	1	1	1	1	31	25	513	312	1	35
14	1	1	1	1	25	24	513	312	1	35
15	1	1	1	1	31	24	513	312	1	35
0	1	1	1	1	28	24	513	312	1	35
1	1	1	1	1	28	24	512	312	1	35
2	1	1	1	1	28	24	512	312	1	35
3	1	1	1	1	28	24	511	312	1	35
4	1	1	1	1	35	28	511	312	1	35
5	1	1	1	1	31	25	510	312	1	35
6	1	1	1	1	28	24	508	312	1	35
7	1	1	1	1	28	24	508	312	1	35
8	1	1	1	1	28	24	505	310	1	35
9	1	1	1	1	28	24	504	312	1	35
10	1	1	1	1	31	25	504	310	1	35
11	1	1	1	1	24	24	504	312	1	35
12	1	1	1	1	28	24	502	312	1	35
13	1	1	1	1	36	28	499	312	1	35
14	1	1	1	1	31	25	499	312	1	35
15	1	1	1	1	31	25	499	312	1	35
0	1	1	1	1	31	25	497	312	1	35
1	1	1	1	1	31	25	497	312	1	35
2	1	1	1	1	28	24	497	312	1	35
3	1	1	1	1	28	24	496	312	1	35
4	1	1	1	1	31	25	496	312	1	35
5	1	1	1	1	28	24	496	312	1	35
6	1	1	1	1	28	24	496	312	1	35
7	1	1	1	1	28	24	496	312	1	35
8	1	1	1	1	31	25	496	312	1	35
9	1	1	1	1	28	24	495	312	1	35
10	1	1	1	1	28	24	494	312	1	35
11	1	1	1	1	31	25	492	312	1	35
12	1	1	1	1	28	24	492	312	1	35
13	1	1	1	1	28	24	489	312	1	35
14	1	1	1	1	30	25	487	312	1	35
15	1	1	1	1	24	24	487	312	1	35
0	1	1	1	1	36	28	487	312	1	35
1	1	1	1	1	36	28	487	312	1	35
2	1	1	1	1	28	24	487	312	1	35
3	1	1	1	1	36	28	487	312	1	35
4	1	1	1	1	28	24	487	312	1	35
5	1	1	1	1	28	24	487	312	1	35
6	1	1	1	1	28	24	487	312	1	35
7	1	1	1	1	31	25	487	312	1	35
8	1	1	1	1	31	25	489	312	1	35
9	1	1	1	1	28	24	492	312	1	35
10	1	1	1	1	28	24	492	312	1	35
11	1	1	1	1	31	25	492	312	1	35
12	1	1	1	1	28	24	492	312	1	35
13	1	1	1	1	31	25	492	312	1	35
14	1	1	1	1	28	24	492	312	1	35
15	1	1	1	1	28	24	492	312	1	35
0	1	1	1	1	31	25	492	312	1	35
1	1	1	1	1	31	25	492	312	1	35
2	1	1	1	1	28	24	492	312	1	35
3	1	1	1	1	31	25	492	312	1	35
4	1	1	1	1	31	25	492	312	1	35
5	1	1	1	1	31	25	492	312	1	35
6	1	1	1	1	24	24	492	312	1	35
7	1	1	1	1	36	28	492	312	1	35
8	1	1	1	1	24	24	494	312	1	35
9	1	1	1	1	28	24	496	312	1	35
10	1	1	1	1	31	24	496	312	1	35
11	1	1	1	1	28	24	496	312	1	35
12	1	1	1	1	28	24	497	312	1	35
13	1	1	1	1	28	24	499	312	1	35
14	1	1	1	1	25	24	499	312	1	35
15	1	1	1	1	31	25	502	312	1	35
0	1	1	1	1	28	24	504	312	1	35
1	1	1	1	1	24	24	504	312	1	35
2	1	1	1	1	28	24	504	312	1	35
3	1	1	1	1	28	24	504	312	1	35
4	1	1	1	1	31	25	504	312	1	35
5	1	1	1	1	31	25	502	312	1	35
6	1	1	1	1	31	25	499	312	1	35
7	1	1	1	1	31	25	497	312	1	35
8	1	1	1	1	31	25	496	312	1	35
9	1	1	1	1	28	24	496	312	1	35
10	1	1	1	1	28	24	494	312	1	35
11	1	1	1	1	28	22	492	312	1	35
12	1	1	1	1	28	24	492	312	1	35
13	1	1	1	1	31	25	492	312	1	35
14	1	1	1	1	24	24	489	312	1	35
15	1	1	1	1	31	25	487	312	1	35
0	1	1	1	1	28	24	487	312	1	35
1	1	1	1	1	28	24	487	312	1	35
2	1	1	1	1	24	24	487	312	1	35
3	1	1	1	1	28	24	487	312	1	35
4	1	1	1	1	31	25	486	312	1	35
5	1	1	1	1	28	24	483	312	1	35
6	1	1	1	1	24	24	481	312	1	35
7	1	1	1	1	28	24	480	312	1	35
8	1	1	1	1	36	28	476	312	1	35
9	1	1	1	1	28	24	472	312	1	35
10	1	1	1	1	28	24	467	312	1	35
11	1	1	1	1	28	24	463	312	1	35
12	1	1	1	1	28	24	462	312	1	35
13	1	1	1	1	28	24	460	312	1	35
14	1	1	1	1	24	24	455	312	1	35
15	1	1	1	1	31	24	455	312	1	35
0	1	1	1	1	31	25	455	312	1	35
1	1	1	1	1	24	24	460	312	1	35
2	1	1	1	1	24	24	463	312	1	35
3	1	1	1	1	28	24	467	312	1	35
4	1	1	1	1	28	24	476	312	1	35
5	1	1	1	1	28	24	483	312	1	35
6	1	1	1	1	31	24	496	312	1	35
7	1	1	1	1	24	24	508	312	1	35
8	1	1	1	1	31	25	524	312	1	35
9	1	1	1	1	28	24	540	312	1	35
10	1	1	1	1	28	24	560	312	1	35
11	1	1	1	1	24	24	579	312	1	35
12	1	1	1	1	31	25	604	312	1	35
13	1	1	1	1	28	24	630	312	1	35
14	1	1	1	1	28	24	655	312	1	35
15	1	1	1	1	28	24	684	312	1	35
0	1	1	1	1	31	24	711	312	1	35
1	1	1	1	1	31	25	743	312	1	35
2	1	1	1	1	28	24	771	312	1	35
3	1	1	1	1	31	28	799	310	1	35
4	1	1	1	1	28	24	828	310	1	35
5	1	1	1	1	24	24	851	308	1	35
6	1	1	1	1	24	24	876	310	1	35
7	1	1	1	1	28	24	896	310	1	35
8	1	1	1	1	28	24	913	312	1	35
9	1	1	1	1	28	24	927	312	1	35
10	1	1	1	1	28	24	940	312	1	35
11	1	1	1	1	28	24	945	312	1	35
12	1	1	1	1	28	24	947	312	1	35
13	1	1	1	1	28	24	947	312	1	35
14	1	1	1	1	25	24	940	312	1	35
15	1	1	1	1	28	24	927	312	1	35
0	1	1	1	1	28	24	915	312	1	35
1	1	1	1	1	28	24	896	312	1	35
2	1	1	1	1	28	24	873	312	1	35
3	1	1	1	1	31	25	847	312	1	35
4	1	1	1	1	31	25	819	312	1	35
5	1	1	1	1	31	25	787	312	1	35
6	1	1	1	1	28	24	755	312	1	35
7	1	1	1	1	31	25	723	312	1	35
8	1	1	1	1	31	25	688	312	1	35
9	1	1	1	1	28	24	655	312	1	35
10	1	1	1	1	31	25	624	312	1	35
11	1	1	1	1	24	24	591	312	1	35
12	1	1	1	1	28	24	563	312	1	35
13	1	1	1	1	28	24	540	312	1	35
14	1	1	1	1	28	24	515	312	1	35
15	1	1	1	1	31	25	497	310	1	35
0	1	1	1	1	28	24	483	310	1	35
1	1	1	1	1	31	25	472	310	1	35
2	1	1	1	1	28	24	465	310	1	35
3	1	1	1	1	28	24	463	310	1	35
4	1	1	1	1	31	24	463	310	1	35
5	1	1	1	1	28	24	463	310	1	35
6	1	1	1	1	28	24	467	312	1	35
7	1	1	1	1	28	24	472	312	1	35
8	1	1	1	1	28	24	480	312	1	35
9	1	1	1	1	28	24	486	312	1	35
10	1	1	1	1	36	28	489	312	1	35
11	1	1	1	1	31	25	496	312	1	35
12	1	1	1	1	28	24	499	312	1	35
13	1	1	1	1	28	24	504	312	1	35
14	1	1	1	1	24	24	504	312	1	35
15	1	1	1	1	28	24	504	312	1	35
0	1	1	1	1	31	25	504	312	1	35
1	1	1	1	1	24	24	504	312	1	35
2	1	1	1	1	36	28	499	312	1	35
3	1	1	1	1	31	24	497	312	1	35
4	1	1	1	1	31	25	496	312	1	35
5	1	1	1	1	28	24	492	312	1	35
6	1	1	1	1	31	25	489	312	1	35
7	1	1	1	1	28	24	487	312	1	35
8	1	1	1	1	28	24	487	312	1	35
9	1	1	1	1	31	25	487	312	1	35
10	1	1	1	1	31	25	486	312	1	35
11	1	1	1	1	28	24	487	312	1	35
12	1	1	1	1	28	24	487	312	1	35
13	1	1	1	1	28	24	487	312	1	35
14	1	1	1	1	28	24	487	312	1	35
15	1	1	1	1	24	22	492	312	1	35
0	1	1	1	1	24	24	494	312	1	35
1	1	1	1	1	28	24	496	312	1	35
2	1	1	1	1	31	25	496	312	1	35
3	1	1	1	1	24	24	497	312	1	35
4	1	1	1	1	31	25	497	312	1	35
5	1	1	1	1	31	24	499	312	1	35
6	1	1	1	1	31	25	499	312	1	35
7	1	1	1	1	28	24	499	312	1	35
8	1	1	1	1	28	24	499	312	1	35
9	1	1	1	1	28	24	497	312	1	35
10	1	1	1	1	31	25	496	312	1	35
11	1	1	1	1	28	24	496	312	1	35
12	1	1	1	1	28	24	494	312	1	35
13	1	1	1	1	31	24	492	312	1	35
14	1	1	1	1	25	24	492	312	1	35
15	1	1	1	1	28	24	492	312	1	35
0	1	1	1	1	28	24	491	312	1	35
1	1	1	1	1	24	24	489	312	1	35
2	1	1	1	1	28	24	492	312	1	35
3	1	1	1	1	28	24	492	312	1	35
4	1	1	1	1	28	24	492	312	1	35
5	1	1	1	1	28	24	492	312	1	35
6	1	1	1	1	28	24	494	312	1	35
7	1	1	1	1	28	24	496	312	1	35
8	1	1	1	1	28	24	496	312	1	35
9	1	1	1	1	31	25	497	312	1	35
10	1	1	1	1	28	24	499	312	1	35
11	1	1	1	1	24	24	499	312	1	35
12	1	1	1	1	28	24	499	312	1	35
13	1	1	1	1	28	24	502	312	1	35
14	1	1	1	1	28	24	504	312	1	35
15	1	1	1	1	28	24	504	312	1	35
0	1	1	1	1	28	24	504	312	1	35
1	1	1	1	1	28	24	502	312	1	35
2	1	1	1	1	28	24	499	312	1	35
3	1	1	1	1	28	24	499	312	1	35
4	1	1	1	1	28	24	499	312	1	35
5	1	1	1	1	28	24	499	312	1	35
6	1	1	1	1	24	24	497	312	1	35
7	1	1	1	1	28	24	497	312	1	35
8	1	1	1	1	28	24	497	312	1	35
9	1	1	1	1	31	24	497	312	1	35
10	1	1	1	1	28	24	497	312	1	35
11	1	1	1	1	28	24	497	312	1	35
12	1	1	1	1	28	24	499	312	1	35
13	1	1	1	1	36	28	499	312	1	35
14	1	1	1	1	31	28	499	312	1	35
15	1	1	1	1	28	24	502	312	1	35
0	1	1	1	1	28	24	502	312	1	35
1	1	1	1	1	36	28	504	312	1	35
2	1	1	1	1	38	28	504	312	1	35
3	1	1	1	1	28	24	504	312	1	35
4	1	1	1	1	28	24	504	312	1	35
5	1	1	1	1	28	24	504	312	1	35
6	1	1	1	1	28	24	504	312	1	35
7	1	1	1	1	31	24	504	312	1	35
8	1	1	1	1	28	24	504	312	1	35
9	1	1	1	1	28	24	505	312	1	35
10	1	1	1	1	28	24	508	312	1	35
11	1	1	1	1	24	24	508	312	1	35
12	1	1	1	1	28	24	508	310	1	35
13	1	1	1	1	28	24	510	312	1	35
14	1	1	1	1	31	25	511	310	1	35
15	1	1	1	1	31	24	511	312	1	35
0	1	1	1	1	28	24	512	312	1	35
1	1	1	1	1	28	24	512	312	1	35
2	1	1	1	1	28	24	513	312	1	35
3	1	1	1	1	24	24	515	312	1	35
4	1	1	1	1	28	24	515	312	1	35
5	1	1	1	1	28	24	515	312	1	35
6	1	1	1	1	28	24	515	312	1	35
7	1	1	1	1	28	24	515	312	1	35
8	1	1	1	1	31	24	515	312	1	35
9	1	1	1	1	31	25	516	312	1	35
10	1	1	1	1	28	24	518	312	1	35
11	1	1	1	1	31	24	518	312	1	35
12	1	1	1	1	28	24	519	312	1	35
13	1	1	1	1	31	25	519	312	1	35
14	1	1	1	1	30	25	519	312	1	35
15	1	1	1	1	28	24	519	312	1	35
0	1	1	1	1	28	24	521	312	1	35
1	1	1	1	1	24	24	524	312	1	35
2	1	1	1	1	28	24	524	312	1	35
3	1	1	1	1	28	24	526	312	1	35
4	1	1	1	1	31	25	527	312	1	35
5	1	1	1	1	28	24	527	312	1	35
6	1	1	1	1	31	25	527	312	1	35
7	1	1	1	1	28	24	527	312	1	35
8	1	1	1	1	31	25	527	312	1	35
9	1	1	1	1	28	24	527	312	1	35
10	1	1	1	1	28	24	529	312	1	35
11	1	1	1	1	31	25	529	312	1	35
12	1	1	1	1	28	24	529	312	1	35
13	1	1	1	1	28	24	531	312	1	35
14	1	1	1	1	31	25	531	312	1	35
15	1	1	1	1	24	24	531	312	1	35
0	1	1	1	1	28	24	534	312	1	35
1	1	1	1	1	28	24	536	312	1	35
2	1	1	1	1	28	24	536	312	1	35
3	1	1	1	1	31	24	537	312	1	35
4	1	1	1	1	31	25	540	312	1	35
5	1	1	1	1	28	24	542	312	1	35
6	1	1	1	1	24	24	543	312	1	35
7	1	1	1	1	24	24	543	312	1	35
8	1	1	1	1	31	25	547	312	1	35
9	1	1	1	1	31	25	551	312	1	35
10	1	1	1	1	36	28	551	312	1	35
11	1	1	1	1	28	24	553	312	1	35
12	1	1	1	1	28	24	556	312	1	35
13	1	1	1	1	31	25	556	312	1	35
14	1	1	1	1	25	24	558	312	1	35
15	1	1	1	1	28	24	558	312	1	35
0	1	1	1	1	31	25	560	312	1	35
1	1	1	1	1	24	24	560	312	1	35
2	1	1	1	1	28	24	560	312	1	35
3	1	1	1	1	28	24	560	312	1	35
4	1	1	1	1	28	24	561	312	1	35
5	1	1	1	1	28	24	563	312	1	35
6	1	1	1	1	28	24	563	312	1	35
7	1	1	1	1	36	28	568	312	1	35
8	1	1	1	1	28	24	568	312	1	35
9	1	1	1	1	28	24	569	312	1	35
10	1	1	1	1	31	24	572	312	1	35
11	1	1	1	1	24	24	574	312	1	35
12	1	1	1	1	31	24	575	312	1	35
13	1	1	1	1	28	24	575	312	1	35
14	1	1	1	1	31	25	575	312	1	35
15	1	1	1	1	28	24	575	312	1	35
0	1	1	1	1	28	24	579	312	1	35
1	1	1	1	1	28	24	582	312	1	35
2	1	1	1	1	31	25	582	312	1	35
3	1	1	1	1	28	24	583	312	1	35
4	1	1	1	1	28	24	583	312	1	35
5	1	1	1	1	31	25	583	310	1	35
6	1	1	1	1	28	24	583	310	1	35
7	1	1	1	1	28	24	583	310	1	35
8	1	1	1	1	28	24	585	312	1	35
9	1	1	1	1	28	24	588	312	1	35
10	1	1	1	1	31	25	588	312	1	35
11	1	1	1	1	28	24	590	312	1	35
12	1	1	1	1	28	24	591	312	1	35
13	1	1	1	1	28	24	591	312	1	35
14	1	1	1	1	24	24	591	312	1	35
15	1	1	1	1	28	24	595	312	1	35
0	1	1	1	1	31	25	595	312	1	35
1	1	1	1	1	28	24	595	312	1	35
2	1	1	1	1	36	28	598	312	1	35
3	1	1	1	1	28	24	600	312	1	35
4	1	1	1	1	28	24	600	312	1	35
5	1	1	1	1	31	25	600	312	1	35
6	1	1	1	1	28	24	600	312	1	35
7	1	1	1	1	28	24	600	312	1	35
8	1	1	1	1	31	25	600	312	1	35
9	1	1	1	1	28	24	600	312	1	35
10	1	1	1	1	28	24	600	312	1	35
11	1	1	1	1	24	24	600	312	1	35
12	1	1	1	1	24	24	600	312	1	35
13	1	1	1	1	28	24	600	312	1	35
14	1	1	1	1	28	24	600	312	1	35
15	1	1	1	1	28	24	600	312	1	35
0	1	1	1	1	31	25	600	312	1	35
1	1	1	1	1	28	24	600	312	1	35
2	1	1	1	1	28	24	596	312	1	35
3	1	1	1	1	31	25	595	312	1	35
4	1	1	1	1	31	25	595	312	1	35
5	1	1	1	1	28	24	595	312	1	35
6	1	1	1	1	28	24	591	312	1	35
7	1	1	1	1	28	24	591	312	1	35
8	1	1	1	1	28	24	591	312	1	35
9	1	1	1	1	28	24	590	312	1	35
10	1	1	1	1	28	24	588	312	1	35
11	1	1	1	1	38	28	583	312	1	35
12	1	1	1	1	28	24	583	312	1	35
13	1	1	1	1	31	25	582	312	1	35
14	1	1	1	1	25	24	575	312	1	35
15	1	1	1	1	31	25	575	312	1	35
0	1	1	1	1	28	24	574	312	1	35
1	1	1	1	1	24	24	572	312	1	35
2	1	1	1	1	28	24	568	312	1	35
3	1	1	1	1	31	25	568	312	1	35
4	1	1	1	1	31	25	563	312	1	35
5	1	1	1	1	28	24	560	312	1	35
6	1	1	1	1	28	24	560	312	1	35
7	1	1	1	1	28	24	556	312	1	35
8	1	1	1	1	31	25	551	312	1	35
9	1	1	1	1	28	24	551	312	1	35
10	1	1	1	1	28	24	547	312	1	35
11	1	1	1	1	24	24	543	312	1	35
12	1	1	1	1	28	24	543	312	1	35
13	1	1	1	1	31	25	540	312	1	35
14	1	1	1	1	31	25	536	312	1	35
15	1	1	1	1	28	24	536	312	1	35
0	1	1	1	1	28	24	529	312	1	35
1	1	1	1	1	28	24	527	312	1	35
2	1	1	1	1	24	24	524	312	1	35
3	1	1	1	1	31	25	521	312	1	35
4	1	1	1	1	28	24	519	312	1	35
5	1	1	1	1	28	24	518	312	1	35
6	1	1	1	1	36	28	515	312	1	35
7	1	1	1	1	28	22	513	312	1	35
8	1	1	1	1	28	24	511	312	1	35
9	1	1	1	1	31	25	510	312	1	35
10	1	1	1	1	28	24	508	312	1	35
11	1	1	1	1	24	24	504	312	1	35
12	1	1	1	1	28	24	504	312	1	35
13	1	1	1	1	24	24	499	312	1	35
14	1	1	1	1	24	24	497	312	1	35
15	1	1	1	1	28	24	496	312	1	35
0	1	1	1	1	31	25	492	312	1	35
1	1	1	1	1	24	24	489	312	1	35
2	1	1	1	1	28	24	487	312	1	35
3	1	1	1	1	28	24	484	312	1	35
4	1	1	1	1	24	24	481	312	1	35
5	1	1	1	1	31	25	480	312	1	35
6	1	1	1	1	28	24	480	312	1	35
7	1	1	1	1	28	24	476	312	1	35
8	1	1	1	1	28	24	476	312	1	35
9	1	1	1	1	25	24	473	312	1	35
10	1	1	1	1	28	24	473	312	1	35
11	1	1	1	1	28	24	472	310	1	35
12	1	1	1	1	28	24	472	310	1	35
13	1	1	1	1	31	24	472	312	1	35
14	1	1	1	1	28	24	472	310	1	35
15	1	1	1	1	28	24	472	310	1	35
0	1	1	1	1	28	24	472	310	1	35
1	1	1	1	1	24	24	472	310	1	35
2	1	1	1	1	28	24	472	310	1	35
3	1	1	1	1	24	24	472	310	1	35
4	1	1	1	1	28	24	472	310	1	35
5	1	1	1	1	31	25	467	310	1	35
6	1	1	1	1	28	24	467	310	1	35
7	1	1	1	1	28	24	467	312	1	35
8	1	1	1	1	28	24	463	312	1	35
9	1	1	1	1	28	24	463	312	1	35
10	1	1	1	1	28	24	463	312	1	35
11	1	1	1	1	31	24	463	312	1	35
12	1	1	1	1	28	24	463	312	1	35
13	1	1	1	1	28	24	462	312	1	35
14	1	1	1	1	25	24	462	312	1	35
15	1	1	1	1	28	24	462	312	1	35
0	1	1	1	1	28	24	462	312	1	35
1	1	1	1	1	31	25	462	312	1	35
2	1	1	1	1	28	24	462	312	1	35
3	1	1	1	1	31	25	462	312	1	35
4	1	1	1	1	28	24	462	312	1	35
5	1	1	1	1	28	24	462	312	1	35
6	1	1	1	1	31	25	462	312	1	35
7	1	1	1	1	28	24	462	312	1	35
8	1	1	1	1	36	28	460	312	1	35
9	1	1	1	1	28	24	460	312	1	35
10	1	1	1	1	28	24	460	312	1	35
11	1	1	1	1	24	24	460	312	1	35
12	1	1	1	1	31	25	460	312	1	35
13	1	1	1	1	24	24	457	312	1	35
14	1	1	1	1	36	28	457	312	1	35
15	1	1	1	1	31	24	457	312	1	35
0	1	1	1	1	31	25	460	312	1	35
1	1	1	1	1	28	24	460	312	1	35
2	1	1	1	1	31	25	460	312	1	35
3	1	1	1	1	31	24	460	312	1	35
4	1	1	1	1	28	24	462	312	1	35
5	1	1	1	1	31	24	462	312	1	35
6	1	1	1	1	35	28	463	312	1	35
7	1	1	1	1	28	24	463	312	1	35
8	1	1	1	1	28	24	463	312	1	35
9	1	1	1	1	28	24	463	312	1	35
10	1	1	1	1	31	25	465	312	1	35
11	1	1	1	1	28	24	467	312	1	35
12	1	1	1	1	36	28	467	312	1	35
13	1	1	1	1	28	24	467	312	1	35
14	1	1	1	1	24	24	467	312	1	35
15	1	1	1	1	28	24	467	312	1	35
0	1	1	1	1	28	24	465	312	1	35
1	1	1	1	1	31	25	463	312	1	35
2	1	1	1	1	28	24	463	312	1	35
3	1	1	1	1	28	24	463	312	1	35
4	1	1	1	1	31	25	463	312	1	35
5	1	1	1	1	28	24	463	312	1	35
6	1	1	1	1	28	24	462	312	1	35
7	1	1	1	1	24	24	462	312	1	35
8	1	1	1	1	28	24	462	312	1	35
9	1	1	1	1	25	24	463	312	1	35
10	1	1	1	1	28	24	463	312	1	35
11	1	1	1	1	28	24	463	312	1	35
12	1	1	1	1	28	24	463	312	1	35
13	1	1	1	1	28	24	463	312	1	35
14	1	1	1	1	31	25	465	312	1	35
15	1	1	1	1	28	24	465	312	1	35
0	1	1	1	1	28	24	467	312	1	35
1	1	1	1	1	31	25	467	312	1	35
2	1	1	1	1	36	28	467	312	1	35
3	1	1	1	1	28	25	467	312	1	35
4	1	1	1	1	28	24	467	312	1	35
5	1	1	1	1	31	24	467	312	1	35
6	1	1	1	1	24	24	467	312	1	35
7	1	1	1	1	28	24	467	312	1	35
8	1	1	1	1	35	28	465	312	1	35
9	1	1	1	1	28	24	467	312	1	35
10	1	1	1	1	28	24	467	312	1	35
11	1	1	1	1	28	22	467	312	1	35
12	1	1	1	1	36	28	467	312	1	35
13	1	1	1	1	28	24	467	312	1	35
14	1	1	1	1	25	24	467	312	1	35
15	1	1	1	1	28	24	470	312	1	35
0	1	1	1	1	28	24	472	312	1	35
1	1	1	1	1	28	24	472	312	1	35
2	1	1	1	1	28	24	472	312	1	35
3	1	1	1	1	31	25	472	312	1	35
4	1	1	1	1	31	25	472	312	1	35
5	1	1	1	1	31	24	472	312	1	35
6	1	1	1	1	28	24	472	312	1	35
7	1	1	1	1	28	24	473	312	1	35
8	1	1	1	1	28	24	473	312	1	35
9	1	1	1	1	28	24	476	312	1	35
10	1	1	1	1	31	25	476	312	1	35
11	1	1	1	1	24	24	476	312	1	35
12	1	1	1	1	28	24	476	312	1	35
13	1	1	1	1	28	24	476	312	1	35
14	1	1	1	1	28	24	478	312	1	35
15	1	1	1	1	28	24	478	312	1	35
0	1	1	1	1	28	24	478	312	1	35
1	1	1	1	1	28	24	478	312	1	35
2	1	1	1	1	28	24	476	312	1	35
3	1	1	1	1	31	24	476	312	1	35
4	1	1	1	1	31	24	476	312	1	35
5	1	1	1	1	28	24	476	312	1	35
6	1	1	1	1	24	24	476	312	1	35
7	1	1	1	1	28	24	476	312	1	35
8	1	1	1	1	28	24	473	310	1	35
9	1	1	1	1	28	24	473	310	1	35
10	1	1	1	1	31	24	472	312	1	35
11	1	1	1	1	28	24	472	310	1	35
12	1	1	1	1	28	24	472	310	1	35
13	1	1	1	1	28	24	472	312	1	35
14	1	1	1	1	28	24	472	310	1	35
15	1	1	1	1	31	24	473	312	1	35
0	1	1	1	1	31	24	473	310	1	35
1	1	1	1	1	24	24	476	310	1	35
2	1	1	1	1	28	24	476	310	1	35
3	1	1	1	1	24	24	476	312	1	35
4	1	1	1	1	31	25	478	312	1	35
5	1	1	1	1	31	25	480	312	1	35
6	1	1	1	1	31	25	480	312	1	35
7	1	1	1	1	31	25	480	312	1	35
8	1	1	1	1	28	24	480	312	1	35
9	1	1	1	1	28	24	481	312	1	35
10	1	1	1	1	31	24	481	312	1	35
11	1	1	1	1	28	24	483	312	1	35
12	1	1	1	1	28	24	483	312	1	35
13	1	1	1	1	28	24	483	312	1	35
14	1	1	1	1	28	24	483	312	1	35
15	1	1	1	1	36	28	483	312	1	35
0	1	1	1	1	28	24	483	312	1	35
1	1	1	1	1	24	24	483	312	1	35
2	1	1	1	1	28	24	483	312	1	35
3	1	1	1	1	31	28	481	312	1	35
4	1	1	1	1	28	24	480	312	1	35
5	1	1	1	1	24	24	480	312	1	35
6	1	1	1	1	24	24	480	312	1	35
7	1	1	1	1	28	24	480	312	1	35
8	1	1	1	1	28	24	480	312	1	35
9	1	1	1	1	28	24	480	312	1	35
10	1	1	1	1	28	24	480	312	1	35
11	1	1	1	1	31	24	480	312	1	35
12	1	1	1	1	28	24	480	312	1	35
13	1	1	1	1	28	24	480	312	1	35
14	1	1	1	1	25	24	480	312	1	35
15	1	1	1	1	28	24	480	312	1	35
0	1	1	1	1	28	24	480	312	1	35
1	1	1	1	1	28	24	480	312	1	35
2	1	1	1	1	31	25	480	312	1	35
3	1	1	1	1	28	24	480	312	1	35
4	1	1	1	1	28	24	481	312	1	35
5	1	1	1	1	28	24	481	312	1	35
6	1	1	1	1	28	24	481	312	1	35
7	1	1	1	1	24	24	483	312	1	35
8	1	1	1	1	28	24	483	312	1	35
9	1	1	1	1	28	24	483	312	1	35
10	1	1	1	1	31	25	483	312	1	35
11	1	1	1	1	24	24	486	312	1	35
12	1	1	1	1	28	24	486	312	1	35
13	1	1	1	1	36	28	487	312	1	35
14	1	1	1	1	31	25	487	312	1	35
15	1	1	1	1	28	24	487	312	1	35
0	1	1	1	1	24	24	487	312	1	35
1	1	1	1	1	31	25	487	312	1	35
2	1	1	1	1	31	25	487	312	1	35
3	1	1	1	1	31	24	487	312	1	35
4	1	1	1	1	31	25	487	312	1	35
5	1	1	1	1	31	24	487	312	1	35
6	1	1	1	1	24	24	487	312	1	35
7	1	1	1	1	31	25	487	312	1	35
8	1	1	1	1	31	24	487	312	1	35
9	1	1	1	1	31	24	487	312	1	35
10	1	1	1	1	31	24	487	312	1	35
11	1	1	1	1	28	24	487	312	1	35
12	1	1	1	1	28	24	487	312	1	35
13	1	1	1	1	28	24	487	312	1	35
14	1	1	1	1	28	25	487	312	1	35
15	1	1	1	1	28	22	487	312	1	35
0	1	1	1	1	25	24	487	312	1	35
1	1	1	1	1	24	24	487	312	1	35
2	1	1	1	1	28	24	487	312	1	35
3	1	1	1	1	28	24	487	312	1	35
4	1	1	1	1	31	25	487	312	1	35
5	1	1	1	1	31	25	487	312	1	35
6	1	1	1	1	28	24	487	312	1	35
7	1	1	1	1	28	24	489	312	1	35
8	1	1	1	1	28	24	492	312	1	35
9	1	1	1	1	31	25	492	312	1	35
10	1	1	1	1	31	25	492	312	1	35
11	1	1	1	1	24	24	492	312	1	35
12	1	1	1	1	28	24	489	312	1	35
13	1	1	1	1	28	24	489	312	1	35
14	1	1	1	1	28	24	487	312	1	35
15	1	1	1	1	28	24	487	312	1	35
0	1	1	1	1	28	24	487	312	1	35
1	1	1	1	1	31	25	487	312	1	35
2	1	1	1	1	28	24	487	312	1	35
3	1	1	1	1	31	25	486	312	1	35
4	1	1	1	1	28	24	486	312	1	35
5	1	1	1	1	28	24	486	312	1	35
6	1	1	1	1	28	24	486	312	1	35
7	1	1	1	1	28	24	487	312	1	35
8	1	1	1	1	28	24	487	312	1	35
9	1	1	1	1	28	24	487	312	1	35
10	1	1	1	1	36	28	487	312	1	35
11	1	1	1	1	31	24	487	312	1	35
12	1	1	1	1	28	24	487	312	1	35
13	1	1	1	1	28	24	487	312	1	35
14	1	1	1	1	24	24	487	312	1	35
15	1	1	1	1	28	24	487	312	1	35
0	1	1	1	1	28	24	487	312	1	35
1	1	1	1	1	24	24	487	312	1	35
2	1	1	1	1	28	24	487	312	1	35
3	1	1	1	1	31	24	487	312	1	35
4	1	1	1	1	36	28	487	312	1	35
5	1	1	1	1	28	24	487	312	1	35
6	1	1	1	1	28	24	487	312	1	35
7	1	1	1	1	31	24	487	312	1	35
8	1	1	1	1	31	24	487	312	1	35
9	1	1	1	1	31	24	487	310	1	35
10	1	1	1	1	28	24	487	312	1	35
11	1	1	1	1	31	24	487	312	1	35
12	1	1	1	1	28	24	487	310	1	35
13	1	1	1	1	28	24	487	310	1	35
14	1	1	1	1	28	24	487	310	1	35
15	1	1	1	1	28	24	487	310	1	35
0	1	1	1	1	31	24	487	310	1	35
1	1	1	1	1	28	24	487	310	1	35
2	1	1	1	1	35	28	486	310	1	35
3	1	1	1	1	28	24	486	310	1	35
4	1	1	1	1	24	24	486	310	1	35
5	1	1	1	1	28	24	486	310	1	35
6	1	1	1	1	28	24	486	310	1	35
7	1	1	1	1	28	24	486	310	1	35
8	1	1	1	1	28	24	486	310	1	35
9	1	1	1	1	31	24	486	310	1	35
10	1	1	1	1	28	24	486	310	1	35
11	1	1	1	1	28	24	487	310	1	35
12	1	1	1	1	28	24	487	310	1	35
13	1	1	1	1	28	24	487	312	1	35
14	1	1	1	1	35	28	487	312	1	35
15	1	1	1	1	28	24	487	312	1	35
0	1	1	1	1	24	24	487	312	1	35
1	1	1	1	1	24	24	487	312	1	35
2	1	1	1	1	28	24	487	312	1	35
3	1	1	1	1	36	28	487	312	1	35
4	1	1	1	1	36	28	487	312	1	35
5	1	1	1	1	28	24	487	312	1	35
6	1	1	1	1	24	24	487	312	1	35
7	1	1	1	1	36	28	486	312	1	35
8	1	1	1	1	31	24	486	312	1	35
9	1	1	1	1	28	24	486	312	1	35
10	1	1	1	1	31	24	486	312	1	35
11	1	1	1	1	24	24	486	312	1	35
12	1	1	1	1	28	24	484	312	1	35
13	1	1	1	1	31	24	483	312	1	35
14	1	1	1	1	28	24	484	312	1	35
15	1	1	1	1	28	24	486	312	1	35
0	1	1	1	1	28	24	486	312	1	35
1	1	1	1	1	28	24	486	312	1	35
2	1	1	1	1	28	24	486	312	1	35
3	1	1	1	1	28	24	487	312	1	35
4	1	1	1	1	28	24	487	312	1	35
5	1	1	1	1	28	24	487	312	1	35
6	1	1	1	1	28	24	487	312	1	35
7	1	1	1	1	28	24	487	312	1	35
8	1	1	1	1	28	24	487	312	1	35
9	1	1	1	1	28	24	487	312	1	35
10	1	1	1	1	28	24	487	312	1	35
11	1	1	1	1	31	25	489	312	1	35
12	1	1	1	1	28	24	492	312	1	35
13	1	1	1	1	31	25	492	312	1	35
14	1	1	1	1	24	24	492	312	1	35
15	1	1	1	1	28	24	492	312	1	35
0	1	1	1	1	31	25	492	312	1	35
1	1	1	1	1	24	24	492	312	1	35
2	1	1	1	1	28	24	492	312	1	35
3	1	1	1	1	36	24	489	312	1	35
4	1	1	1	1	28	24	487	312	1	35
5	1	1	1	1	24	24	487	312	1	35
6	1	1	1	1	28	24	487	312	1	35
7	1	1	1	1	28	24	487	312	1	35
8	1	1	1	1	28	24	486	312	1	35
9	1	1	1	1	31	25	483	312	1	35
10	1	1	1	1	31	24	483	312	1	35
11	1	1	1	1	28	24	483	312	1	35
12	1	1	1	1	31	25	481	312	1	35
13	1	1	1	1	31	25	481	312	1	35
14	1	1	1	1	31	25	483	312	1	35
15	1	1	1	1	28	24	483	312	1	35
0	1	1	1	1	31	24	483	312	1	35
1	1	1	1	1	28	24	483	312	1	35
2	1	1	1	1	28	24	486	312	1	35
3	1	1	1	1	31	25	487	312	1	35
4	1	1	1	1	28	24	487	312	1	35
5	1	1	1	1	28	24	487	312	1	35
6	1	1	1	1	24	24	487	312	1	35
7	1	1	1	1	31	25	489	312	1	35
8	1	1	1	1	28	24	492	312	1	35
9	1	1	1	1	31	24	492	312	1	35
10	1	1	1	1	24	24	492	312	1	35
11	1	1	1	1	28	24	492	312	1	35
12	1	1	1	1	28	24	494	312	1	35
13	1	1	1	1	28	24	494	312	1	35
14	1	1	1	1	25	24	494	312	1	35
15	1	1	1	1	28	24	494	312	1	35
0	1	1	1	1	31	24	492	312	1	35
1	1	1	1	1	24	24	492	312	1	35
2	1	1	1	1	36	28	492	312	1	35
3	1	1	1	1	28	24	492	312	1	35
4	1	1	1	1	31	25	492	312	1	35
5	1	1	1	1	28	24	492	312	1	35
6	1	1	1	1	31	25	492	312	1	35
7	1	1	1	1	28	24	492	312	1	35
8	1	1	1	1	28	24	492	312	1	35
9	1	1	1	1	28	24	492	312	1	35
10	1	1	1	1	28	24	492	312	1	35
11	1	1	1	1	28	24	492	312	1	35
12	1	1	1	1	28	24	492	312	1	35
13	1	1	1	1	28	24	492	312	1	35
14	1	1	1	1	28	24	492	312	1	35
15	1	1	1	1	28	24	492	312	1	35
0	1	1	1	1	31	24	492	312	1	35
1	1	1	1	1	28	24	492	312	1	35
2	1	1	1	1	31	24	492	312	1	35
3	1	1	1	1	31	24	492	312	1	35
4	1	1	1	1	28	24	494	312	1	35
5	1	1	1	1	28	24	494	312	1	35
6	1	1	1	1	28	24	494	312	1	35
7	1	1	1	1	28	24	494	312	1	35
8	1	1	1	1	31	24	494	312	1	35
9	1	1	1	1	28	24	496	312	1	35
10	1	1	1	1	28	24	496	312	1	35
11	1	1	1	1	28	24	496	312	1	35
12	1	1	1	1	31	24	496	312	1	35
13	1	1	1	1	31	24	496	312	1	35
14	1	1	1	1	24	24	496	312	1	35
15	1	1	1	1	28	24	496	312	1	35
0	1	1	1	1	31	24	496	312	1	35
1	1	1	1	1	31	24	496	312	1	35
2	1	1	1	1	28	24	496	312	1	35
3	1	1	1	1	24	24	496	312	1	35
4	1	1	1	1	31	25	496	312	1	35
5	1	1	1	1	31	25	494	312	1	35
6	1	1	1	1	28	24	494	312	1	35
7	1	1	1	1	28	24	492	312	1	35
8	1	1	1	1	24	24	492	312	1	35
9	1	1	1	1	35	28	492	312	1	35
10	1	1	1	1	31	25	489	312	1	35
11	1	1	1	1	31	25	487	312	1	35
12	1	1	1	1	31	24	487	312	1	35
13	1	1	1	1	28	24	487	312	1	35
14	1	1	1	1	28	24	487	312	1	35
15	1	1	1	1	28	24	487	312	1	35
0	1	1	1	1	28	24	489	312	1	35
1	1	1	1	1	31	24	489	312	1	35
2	1	1	1	1	31	24	492	312	1	35
3	1	1	1	1	24	24	492	312	1	35
4	1	1	1	1	35	28	492	312	1	35
5	1	1	1	1	28	24	492	312	1	35
6	1	1	1	1	24	24	494	312	1	35
7	1	1	1	1	28	24	494	312	1	35
8	1	1	1	1	31	24	494	310	1	35
9	1	1	1	1	28	24	496	310	1	35
10	1	1	1	1	31	24	496	312	1	35
11	1	1	1	1	28	24	496	312	1	35
12	1	1	1	1	31	24	496	310	1	35
13	1	1	1	1	28	24	496	312	1	35
14	1	1	1	1	30	24	496	312	1	35
15	1	1	1	1	24	24	496	310	1	35
0	1	1	1	1	35	28	496	310	1	35
1	1	1	1	1	28	24	494	312	1	35
2	1	1	1	1	28	24	494	310	1	35
3	1	1	1	1	28	24	494	312	1	35
4	1	1	1	1	31	24	492	310	1	35
5	1	1	1	1	28	24	492	310	1	35
6	1	1	1	1	28	24	492	310	1	35
7	1	1	1	1	28	22	492	312	1	35
8	1	1	1	1	28	24	492	312	1	35
9	1	1	1	1	31	24	492	312	1	35
10	1	1	1	1	28	24	494	312	1	35
11	1	1	1	1	24	24	494	312	1	35
12	1	1	1	1	28	24	494	312	1	35
13	1	1	1	1	28	24	496	312	1	35
14	1	1	1	1	28	24	496	312	1	35
15	1	1	1	1	28	24	496	312	1	35
0	1	1	1	1	28	24	496	312	1	35
1	1	1	1	1	28	24	496	312	1	35
2	1	1	1	1	28	24	496	312	1	35
3	1	1	1	1	28	24	496	312	1	35
4	1	1	1	1	28	24	496	312	1	35
5	1	1	1	1	28	24	496	312	1	35
6	1	1	1	1	28	24	496	312	1	35
7	1	1	1	1	28	24	496	312	1	35
8	1	1	1	1	28	24	494	312	1	35
9	1	1	1	1	28	24	494	312	1	35
10	1	1	1	1	24	24	494	310	1	35
11	1	1	1	1	28	24	494	312	1	35
12	1	1	1	1	31	24	492	312	1	35
13	1	1	1	1	28	24	494	312	1	35
14	1	1	1	1	24	24	494	312	1	35
15	1	1	1	1	28	24	494	312	1	35
0	1	1	1	1	28	24	494	312	1	35
1	1	1	1	1	24	24	496	312	1	35
2	1	1	1	1	28	24	496	312	1	35
3	1	1	1	1	28	24	496	312	1	35
4	1	1	1	1	36	28	496	312	1	35
5	1	1	1	1	28	24	496	312	1	35
6	1	1	1	1	28	24	496	312	1	35
7	1	1	1	1	31	25	496	312	1	35
8	1	1	1	1	36	28	496	312	1	35
9	1	1	1	1	28	24	497	312	1	35
10	1	1	1	1	28	24	497	312	1	35
11	1	1	1	1	24	24	499	312	1	35
12	1	1	1	1	31	25	499	312	1	35
13	1	1	1	1	28	24	499	312	1	35
14	1	1	1	1	31	25	499	312	1	35
15	1	1	1	1	36	28	499	312	1	35
0	1	1	1	1	28	24	499	312	1	35
1	1	1	1	1	24	24	499	312	1	35
2	1	1	1	1	31	25	499	312	1	35
3	1	1	1	1	24	24	499	312	1	35
4	1	1	1	1	31	25	499	312	1	35
5	1	1	1	1	28	24	499	312	1	35
6	1	1	1	1	28	24	502	312	1	35
7	1	1	1	1	28	24	502	312	1	35
8	1	1	1	1	31	25	504	312	1	35
9	1	1	1	1	28	24	504	312	1	35
10	1	1	1	1	24	24	504	312	1	35
11	1	1	1	1	31	25	504	312	1	35
12	1	1	1	1	28	24	504	312	1	35
13	1	1	1	1	28	24	504	312	1	35
14	1	1	1	1	30	24	504	312	1	35
15	1	1	1	1	28	24	504	312	1	35
0	1	1	1	1	28	24	504	312	1	35
1	1	1	1	1	24	24	504	312	1	35
2	1	1	1	1	31	24	505	312	1	35
3	1	1	1	1	28	24	505	312	1	35
4	1	1	1	1	28	24	508	312	1	35
5	1	1	1	1	28	24	508	312	1	35
6	1	1	1	1	24	24	508	312	1	35
7	1	1	1	1	31	25	508	312	1	35
8	1	1	1	1	28	24	510	312	1	35
9	1	1	1	1	28	24	510	312	1	35
10	1	1	1	1	28	24	511	312	1	35
11	1	1	1	1	31	24	511	312	1	35
12	1	1	1	1	28	24	511	312	1	35
13	1	1	1	1	36	28	511	312	1	35
14	1	1	1	1	28	24	511	312	1	35
15	1	1	1	1	28	24	511	312	1	35
0	1	1	1	1	28	24	511	312	1	35
1	1	1	1	1	36	28	511	312	1	35
2	1	1	1	1	28	24	511	312	1	35
3	1	1	1	1	28	24	511	312	1	35
4	1	1	1	1	24	24	511	312	1	35
5	1	1	1	1	28	24	511	310	1	35
6	1	1	1	1	31	24	511	312	1	35
7	1	1	1	1	31	24	512	312	1	35
8	1	1	1	1	28	24	512	310	1	35
9	1	1	1	1	28	24	513	312	1	35
10	1	1	1	1	24	24	513	312	1	35
11	1	1	1	1	28	24	515	312	1	35
12	1	1	1	1	28	24	515	310	1	35
13	1	1	1	1	28	24	518	312	1	35
14	1	1	1	1	25	24	519	310	1	35
15	1	1	1	1	28	24	519	310	1	35
0	1	1	1	1	28	24	519	310	1	35
1	1	1	1	1	24	24	519	310	1	35
2	1	1	1	1	28	24	521	310	1	35
3	1	1	1	1	31	24	524	310	1	35
4	1	1	1	1	28	24	524	307	1	35
5	1	1	1	1	31	24	524	308	1	35
6	1	1	1	1	28	24	524	307	1	35
7	1	1	1	1	35	28	524	307	1	35
8	1	1	1	1	28	24	524	307	1	35
9	1	1	1	1	31	24	524	307	1	35
10	1	1	1	1	24	24	521	307	1	35
11	1	1	1	1	31	24	519	307	1	35
12	1	1	1	1	28	24	519	307	1	35
13	1	1	1	1	31	24	519	307	1	35
14	1	1	1	1	31	24	519	307	1	35
15	1	1	1	1	28	24	519	307	1	35
0	1	1	1	1	28	24	518	307	1	35
1	1	1	1	1	28	24	515	310	1	35
2	1	1	1	1	31	24	515	310	1	35
3	1	1	1	1	28	24	513	310	1	35
4	1	1	1	1	31	24	512	310	1	35
5	1	1	1	1	31	24	511	310	1	35
6	1	1	1	1	24	24	510	310	1	35
7	1	1	1	1	28	24	508	310	1	35
8	1	1	1	1	28	24	508	310	1	35
9	1	1	1	1	31	24	504	310	1	35
10	1	1	1	1	28	24	504	310	1	35
11	1	1	1	1	28	24	504	312	1	35
12	1	1	1	1	28	24	502	312	1	35
13	1	1	1	1	24	24	499	312	1	35
14	1	1	1	1	30	24	499	312	1	35
15	1	1	1	1	28	24	497	312	1	35
0	1	1	1	1	28	24	496	312	1	35
1	1	1	1	1	24	24	496	312	1	35
2	1	1	1	1	31	24	496	312	1	35
3	1	1	1	1	28	24	496	312	1	35
4	1	1	1	1	28	24	494	312	1	35
5	1	1	1	1	28	24	494	312	1	35
6	1	1	1	1	28	24	494	312	1	35
7	1	1	1	1	28	24	492	312	1	35
8	1	1	1	1	28	24	492	312	1	35
9	1	1	1	1	28	24	492	312	1	35
10	1	1	1	1	28	24	492	312	1	35
11	1	1	1	1	31	25	492	312	1	35
12	1	1	1	1	36	28	492	312	1	35
13	1	1	1	1	28	24	492	312	1	35
14	1	1	1	1	28	24	492	312	1	35
15	1	1	1	1	31	25	489	312	1	35
0	1	1	1	1	24	24	492	312	1	35
1	1	1	1	1	28	24	489	312	1	35
2	1	1	1	1	28	24	489	312	1	35
3	1	1	1	1	24	24	489	312	1	35
4	1	1	1	1	31	25	489	312	1	35
5	1	1	1	1	28	24	492	312	1	35
6	1	1	1	1	24	24	492	312	1	35
7	1	1	1	1	28	24	492	312	1	35
8	1	1	1	1	28	24	492	312	1	35
9	1	1	1	1	31	25	492	312	1	35
10	1	1	1	1	28	24	492	312	1	35
11	1	1	1	1	38	28	492	312	1	35
12	1	1	1	1	28	24	492	312	1	35
13	1	1	1	1	28	24	492	312	1	35
14	1	1	1	1	25	24	492	312	1	35
15	1	1	1	1	28	24	492	312	1	35
0	1	1	1	1	28	24	492	312	1	35
1	1	1	1	1	24	24	494	312	1	35
2	1	1	1	1	31	24	494	312	1	35
3	1	1	1	1	28	24	494	312	1	35
4	1	1	1	1	28	24	494	312	1	35
5	1	1	1	1	28	24	494	312	1	35
6	1	1	1	1	28	24	496	312	1	35
7	1	1	1	1	28	24	496	312	1	35
8	1	1	1	1	28	24	496	312	1	35
9	1	1	1	1	28	24	496	312	1	35
10	1	1	1	1	31	24	496	312	1	35
11	1	1	1	1	31	24	496	312	1	35
12	1	1	1	1	31	25	496	312	1	35
13	1	1	1	1	28	24	496	312	1	35
14	1	1	1	1	28	24	496	312	1	35
15	1	1	1	1	31	24	496	312	1	35
0	1	1	1	1	24	24	496	312	1	35
1	1	1	1	1	28	24	496	312	1	35
2	1	1	1	1	28	24	496	312	1	35
3	1	1	1	1	35	28	496	312	1	35
4	1	1	1	1	28	24	496	312	1	35
5	1	1	1	1	28	24	496	312	1	35
6	1	1	1	1	31	24	496	312	1	35
7	1	1	1	1	28	24	496	312	1	35
8	1	1	1	1	28	24	496	312	1	35
9	1	1	1	1	28	24	496	312	1	35
10	1	1	1	1	31	24	496	310	1	35
11	1	1	1	1	28	24	496	310	1	35
12	1	1	1	1	31	24	496	310	1	35
13	1	1	1	1	31	24	496	310	1	35
14	1	1	1	1	24	24	496	310	1	35
15	1	1	1	1	31	24	496	310	1	35
0	1	1	1	1	31	24	494	310	1	35
1	1	1	1	1	31	24	492	310	1	35
2	1	1	1	1	28	24	489	308	1	35
3	1	1	1	1	28	24	487	308	1	35
4	1	1	1	1	28	24	483	308	1	35
5	1	1	1	1	24	24	480	307	1	35
6	1	1	1	1	31	24	478	307	1	35
7	1	1	1	1	28	24	472	307	1	35
8	1	1	1	1	28	24	470	310	1	35
9	1	1	1	1	25	24	465	307	1	35
10	1	1	1	1	28	24	463	307	1	35
11	1	1	1	1	28	24	462	307	1	35
12	1	1	1	1	35	28	460	307	2	35
13	1	1	1	1	28	24	460	307	1	35
14	1	1	1	1	24	24	462	307	1	35
15	1	1	1	1	31	24	463	307	1	35
0	1	1	1	1	28	24	470	310	1	35
1	1	1	1	1	28	24	476	308	1	35
2	1	1	1	1	28	24	483	308	1	35
3	1	1	1	1	24	24	492	308	1	35
4	1	1	1	1	31	24	504	308	1	35
5	1	1	1	1	31	24	518	307	1	35
6	1	1	1	1	28	24	536	308	1	35
7	1	1	1	1	28	24	551	310	1	35
8	1	1	1	1	31	24	569	310	1	35
9	1	1	1	1	28	24	591	310	1	35
10	1	1	1	1	31	24	615	310	1	35
11	1	1	1	1	28	24	639	310	1	35
12	1	1	1	1	35	28	665	310	1	35
13	1	1	1	1	28	24	694	310	1	35
14	1	1	1	1	31	24	719	312	1	35
15	1	1	1	1	28	24	748	312	1	35
0	1	1	1	1	31	24	775	312	1	35
1	1	1	1	1	24	24	799	312	1	35
2	1	1	1	1	24	24	824	312	1	35
3	1	1	1	1	28	24	847	312	1	35
4	1	1	1	1	28	24	867	312	1	35
5	1	1	1	1	28	24	884	312	1	35
6	1	1	1	1	28	24	899	312	1	35
7	1	1	1	1	28	24	911	312	1	35
8	1	1	1	1	28	24	920	312	1	35
9	1	1	1	1	28	24	924	312	1	35
10	1	1	1	1	28	24	924	312	1	35
11	1	1	1	1	28	24	920	312	1	35
12	1	1	1	1	28	24	911	312	1	35
13	1	1	1	1	28	24	900	312	1	35
14	1	1	1	1	31	25	884	312	1	35
15	1	1	1	1	28	24	865	312	1	35
0	1	1	1	1	31	25	844	312	1	35
1	1	1	1	1	28	24	816	312	1	35
2	1	1	1	1	31	25	787	312	1	35
3	1	1	1	1	31	25	760	312	1	35
4	1	1	1	1	28	24	728	312	1	35
5	1	1	1	1	28	24	696	312	1	35
6	1	1	1	1	28	24	664	312	1	35
7	1	1	1	1	28	24	632	312	1	35
8	1	1	1	1	31	25	600	312	1	35
9	1	1	1	1	28	24	572	312	1	35
10	1	1	1	1	28	24	543	312	1	35
11	1	1	1	1	28	24	524	312	1	35
12	1	1	1	1	31	25	504	312	1	35
13	1	1	1	1	31	24	487	312	1	35
14	1	1	1	1	24	24	472	312	1	35
15	1	1	1	1	28	24	463	312	1	35
0	1	1	1	1	31	25	460	312	1	35
1	1	1	1	1	24	24	455	312	1	35
2	1	1	1	1	28	24	455	312	1	35
3	1	1	1	1	38	28	460	312	1	35
4	1	1	1	1	31	25	463	312	1	35
5	1	1	1	1	24	24	470	312	1	35
6	1	1	1	1	36	28	476	312	1	35
7	1	1	1	1	31	24	481	312	1	35
8	1	1	1	1	31	24	487	312	1	35
9	1	1	1	1	31	24	496	312	1	35
10	1	1	1	1	31	25	499	312	1	35
11	1	1	1	1	28	24	504	312	1	35
12	1	1	1	1	31	25	508	312	1	35
13	1	1	1	1	28	24	508	312	1	35
14	1	1	1	1	28	24	510	312	1	35
15	1	1	1	1	28	24	510	312	1	35
0	1	1	1	1	31	24	510	312	1	35
1	1	1	1	1	28	24	508	312	1	35
2	1	1	1	1	28	24	505	312	1	35
3	1	1	1	1	28	24	504	312	1	35
4	1	1	1	1	36	28	502	312	1	35
5	1	1	1	1	28	24	499	312	1	35
6	1	1	1	1	28	24	497	312	1	35
7	1	1	1	1	28	24	496	312	1	35
8	1	1	1	1	36	28	496	312	1	35
9	1	1	1	1	28	24	496	312	1	35
10	1	1	1	1	31	24	494	312	1	35
11	1	1	1	1	31	24	495	312	1	35
12	1	1	1	1	28	24	496	312	1	35
13	1	1	1	1	28	24	496	312	1	35
14	1	1	1	1	25	24	496	312	1	35
15	1	1	1	1	28	24	496	312	1	35
0	1	1	1	1	31	24	496	312	1	35
1	1	1	1	1	24	24	497	312	1	35
2	1	1	1	1	28	24	499	312	1	35
3	1	1	1	1	28	24	499	312	1	35
4	1	1	1	1	31	24	499	312	1	35
5	1	1	1	1	28	24	499	312	1	35
6	1	1	1	1	31	24	499	312	1	35
7	1	1	1	1	28	24	499	312	1	35
8	1	1	1	1	28	24	499	312	1	35
9	1	1	1	1	28	24	499	312	1	35
10	1	1	1	1	31	24	497	312	1	35
11	1	1	1	1	24	24	497	310	1	35
12	1	1	1	1	28	24	497	310	1	35
13	1	1	1	1	28	24	497	312	1	35
14	1	1	1	1	31	24	496	312	1	35
15	1	1	1	1	24	24	497	312	1	35
0	1	1	1	1	28	24	497	312	1	35
1	1	1	1	1	35	28	497	312	1	35
2	1	1	1	1	28	24	497	310	1	35
3	1	1	1	1	19	24	499	312	1	35
4	1	1	1	1	31	24	499	312	1	35
5	1	1	1	1	28	24	499	310	1	35
6	1	1	1	1	31	24	499	310	1	35
7	1	1	1	1	28	24	502	310	1	35
8	1	1	1	1	28	24	504	310	1	35
9	1	1	1	1	31	24	504	310	1	35
10	1	1	1	1	31	24	504	310	1	35
11	1	1	1	1	28	24	504	310	1	35
12	1	1	1	1	31	24	504	310	1	35
13	1	1	1	1	28	24	504	312	1	35
14	1	1	1	1	24	24	504	312	1	35
15	1	1	1	1	28	24	504	312	1	35
0	1	1	1	1	31	24	504	312	1	35
1	1	1	1	1	31	24	504	312	1	35
2	1	1	1	1	31	24	502	312	1	35
3	1	1	1	1	28	24	502	312	1	35
4	1	1	1	1	28	24	502	312	1	35
5	1	1	1	1	31	24	502	312	1	35
6	1	1	1	1	28	24	504	312	1	35
7	1	1	1	1	35	28	504	312	1	35
8	1	1	1	1	28	24	504	312	1	35
9	1	1	1	1	35	28	504	312	1	35
10	1	1	1	1	31	24	504	312	1	35
11	1	1	1	1	28	24	504	312	1	35
12	1	1	1	1	28	24	504	312	1	35
13	1	1	1	1	31	24	505	312	1	35
14	1	1	1	1	31	24	505	312	1	35
15	1	1	1	1	28	24	508	312	1	35
0	1	1	1	1	28	24	508	312	1	35
1	1	1	1	1	31	24	508	312	1	35
2	1	1	1	1	28	24	508	312	1	35
3	1	1	1	1	28	24	508	312	1	35
4	1	1	1	1	36	28	508	312	1	35
5	1	1	1	1	28	24	508	312	1	35
6	1	1	1	1	31	24	510	312	1	35
7	1	1	1	1	31	24	510	312	1	35
8	1	1	1	1	28	24	511	312	1	35
9	1	1	1	1	28	24	511	312	1	35
10	1	1	1	1	31	24	512	312	1	35
11	1	1	1	1	28	24	513	312	1	35
12	1	1	1	1	28	24	515	312	1	35
13	1	1	1	1	28	24	515	312	1	35
14	1	1	1	1	25	24	518	312	1	35
15	1	1	1	1	28	24	519	312	1	35
0	1	1	1	1	31	24	519	312	1	35
1	1	1	1	1	24	24	519	312	1	35
2	1	1	1	1	28	24	519	312	1	35
3	1	1	1	1	28	24	519	312	1	35
4	1	1	1	1	24	24	521	312	1	35
5	1	1	1	1	28	24	521	312	1	35
6	1	1	1	1	24	24	521	312	1	35
7	1	1	1	1	28	24	519	312	1	35
8	1	1	1	1	28	24	519	312	1	35
9	1	1	1	1	31	24	519	312	1	35
10	1	1	1	1	28	24	519	312	1	35
11	1	1	1	1	24	24	519	312	1	35
12	1	1	1	1	28	24	519	312	1	35
13	1	1	1	1	31	24	519	312	1	35
14	1	1	1	1	36	28	519	312	1	35
15	1	1	1	1	28	24	524	312	1	35
0	1	1	1	1	28	24	524	312	1	35
1	1	1	1	1	28	24	526	312	1	35
2	1	1	1	1	31	24	527	312	1	35
3	1	1	1	1	31	24	527	312	1	35
4	1	1	1	1	28	24	529	312	1	35
5	1	1	1	1	28	24	531	312	1	35
6	1	1	1	1	28	24	534	312	1	35
7	1	1	1	1	36	28	536	312	2	35
8	1	1	1	1	31	24	536	312	1	35
9	1	1	1	1	28	24	537	312	1	35
10	1	1	1	1	28	24	540	312	1	35
11	1	1	1	1	28	24	540	312	1	35
12	1	1	1	1	28	24	542	312	1	35
13	1	1	1	1	28	24	543	312	1	35
14	1	1	1	1	25	24	543	312	1	35
15	1	1	1	1	31	25	543	312	1	35
0	1	1	1	1	28	24	543	312	1	35
1	1	1	1	1	24	24	543	312	1	35
2	1	1	1	1	36	28	545	312	1	35
3	1	1	1	1	28	24	547	312	1	35
4	1	1	1	1	28	24	547	312	1	35
5	1	1	1	1	36	28	550	312	1	35
6	1	1	1	1	31	24	551	312	1	35
7	1	1	1	1	28	24	551	312	1	35
8	1	1	1	1	28	24	551	312	1	35
9	1	1	1	1	35	28	551	312	1	35
10	1	1	1	1	28	24	553	312	1	35
11	1	1	1	1	28	24	556	312	1	35
12	1	1	1	1	24	24	556	312	1	35
13	1	1	1	1	24	24	558	312	1	35
14	1	1	1	1	28	24	560	312	1	35
15	1	1	1	1	28	24	560	312	1	35
0	1	1	1	1	28	24	560	312	1	35
1	1	1	1	1	31	24	563	312	1	35
2	1	1	1	1	28	24	563	312	1	35
3	1	1	1	1	31	24	568	312	1	35
4	1	1	1	1	31	24	568	312	1	35
5	1	1	1	1	28	24	572	312	1	35
6	1	1	1	1	28	24	574	312	1	35
7	1	1	1	1	31	24	575	312	1	35
8	1	1	1	1	28	24	575	312	1	35
9	1	1	1	1	28	24	575	312	1	35
10	1	1	1	1	28	24	579	312	1	35
11	1	1	1	1	28	24	583	312	1	35
12	1	1	1	1	31	24	583	312	1	35
13	1	1	1	1	28	24	583	312	1	35
14	1	1	1	1	24	24	583	312	1	35
15	1	1	1	1	28	24	583	312	1	35
0	1	1	1	1	28	24	583	312	1	35
1	1	1	1	1	24	24	585	312	1	35
2	1	1	1	1	28	24	588	312	1	35
3	1	1	1	1	28	24	588	312	1	35
4	1	1	1	1	28	24	588	312	1	35
5	1	1	1	1	31	24	590	312	1	35
6	1	1	1	1	28	24	591	312	1	35
7	1	1	1	1	28	24	591	312	1	35
8	1	1	1	1	31	24	591	312	1	35
9	1	1	1	1	28	24	593	312	1	35
10	1	1	1	1	28	24	595	312	1	35
11	1	1	1	1	28	24	600	310	1	35
12	1	1	1	1	28	24	600	310	1	35
13	1	1	1	1	24	24	600	310	1	35
14	1	1	1	1	31	24	601	310	1	35
15	1	1	1	1	24	24	604	312	1	35
0	1	1	1	1	28	24	606	312	1	35
1	1	1	1	1	28	24	608	312	1	35
2	1	1	1	1	28	24	608	310	1	35
3	1	1	1	1	24	24	608	312	1	35
4	1	1	1	1	28	24	608	312	1	35
5	1	1	1	1	35	28	608	312	1	35
6	1	1	1	1	28	24	608	312	1	35
7	1	1	1	1	28	24	608	312	1	35
8	1	1	1	1	28	24	608	312	1	35
9	1	1	1	1	28	24	608	312	1	35
10	1	1	1	1	28	24	608	312	1	35
11	1	1	1	1	31	24	604	312	1	35
12	1	1	1	1	28	24	604	312	1	35
13	1	1	1	1	28	24	604	312	1	35
14	1	1	1	1	31	24	601	312	1	35
15	1	1	1	1	31	24	601	312	1	35
0	1	1	1	1	28	24	600	312	1	35
1	1	1	1	1	31	24	600	312	1	35
2	1	1	1	1	28	24	600	312	1	35
3	1	1	1	1	28	24	600	312	1	35
4	1	1	1	1	31	24	600	310	1	35
5	1	1	1	1	28	24	598	312	1	35
6	1	1	1	1	35	28	595	312	1	35
7	1	1	1	1	28	24	593	310	1	35
8	1	1	1	1	24	24	591	310	1	35
9	1	1	1	1	28	24	591	310	1	35
10	1	1	1	1	28	24	590	312	1	35
11	1	1	1	1	31	24	588	312	1	35
12	1	1	1	1	35	28	583	312	1	35
13	1	1	1	1	28	24	582	312	1	35
14	1	1	1	1	31	24	575	312	1	35
15	1	1	1	1	31	24	575	312	1	35
0	1	1	1	1	31	24	574	312	1	35
1	1	1	1	1	28	24	572	312	1	35
2	1	1	1	1	31	24	568	312	1	35
3	1	1	1	1	31	24	566	312	1	35
4	1	1	1	1	28	24	563	312	1	35
5	1	1	1	1	31	24	560	312	1	35
6	1	1	1	1	24	24	560	312	1	35
7	1	1	1	1	28	24	556	312	1	35
8	1	1	1	1	28	24	553	312	1	35
9	1	1	1	1	28	24	551	312	1	35
10	1	1	1	1	28	24	550	312	1	35
11	1	1	1	1	24	24	547	312	1	35
12	1	1	1	1	28	24	543	312	1	35
13	1	1	1	1	28	24	540	312	1	35
14	1	1	1	1	24	24	536	312	1	35
15	1	1	1	1	31	24	534	312	1	35
0	1	1	1	1	28	24	529	312	1	35
1	1	1	1	1	24	24	526	312	1	35
2	1	1	1	1	31	25	521	312	1	35
3	1	1	1	1	31	24	519	312	1	35
4	1	1	1	1	31	24	515	312	1	35
5	1	1	1	1	24	24	512	312	1	35
6	1	1	1	1	38	28	510	312	1	35
7	1	1	1	1	28	24	505	312	1	35
8	1	1	1	1	28	24	504	312	1	35
9	1	1	1	1	25	24	504	312	1	35
10	1	1	1	1	28	24	499	312	1	35
11	1	1	1	1	31	24	497	312	1	35
12	1	1	1	1	28	24	496	312	1	35
13	1	1	1	1	24	24	496	312	1	35
14	1	1	1	1	31	24	494	312	1	35
15	1	1	1	1	28	24	492	312	1	35
0	1	1	1	1	31	24	492	312	1	35
1	1	1	1	1	24	24	489	312	1	35
2	1	1	1	1	36	28	487	312	1	35
3	1	1	1	1	28	24	487	312	1	35
4	1	1	1	1	28	24	487	312	1	35
5	1	1	1	1	28	24	486	312	1	35
6	1	1	1	1	24	24	483	312	1	35
7	1	1	1	1	31	24	483	312	1	35
8	1	1	1	1	28	24	481	312	1	35
9	1	1	1	1	28	24	480	312	1	35
10	1	1	1	1	28	24	480	312	1	35
11	1	1	1	1	31	24	480	312	1	35
12	1	1	1	1	28	24	476	312	1	35
13	1	1	1	1	28	24	476	312	1	35
14	1	1	1	1	25	24	473	312	1	35
15	1	1	1	1	31	24	472	312	1	35
0	1	1	1	1	28	24	472	312	1	35
1	1	1	1	1	31	24	472	312	1	35
2	1	1	1	1	28	24	472	312	1	35
3	1	1	1	1	24	24	470	312	1	35
4	1	1	1	1	28	24	468	312	1	35
5	1	1	1	1	28	24	467	312	1	35
6	1	1	1	1	28	24	467	312	1	35
7	1	1	1	1	36	28	467	312	1	35
8	1	1	1	1	28	24	467	312	1	35
9	1	1	1	1	36	28	467	312	1	35
10	1	1	1	1	28	24	467	312	1	35
11	1	1	1	1	24	24	467	312	1	35
12	1	1	1	1	28	24	467	312	1	35
13	1	1	1	1	28	24	467	312	1	35
14	1	1	1	1	28	24	465	312	1	35
15	1	1	1	1	31	24	465	312	1	35
0	1	1	1	1	31	24	463	312	1	35
1	1	1	1	1	28	24	463	312	1	35
2	1	1	1	1	31	24	463	312	1	35
3	1	1	1	1	31	24	463	312	1	35
4	1	1	1	1	31	24	463	312	1	35
5	1	1	1	1	28	24	463	312	1	35
6	1	1	1	1	24	24	463	312	1	35
7	1	1	1	1	28	24	463	312	1	35
8	1	1	1	1	28	24	462	312	1	35
9	1	1	1	1	28	24	462	312	1	35
10	1	1	1	1	28	24	462	312	1	35
11	1	1	1	1	28	24	462	312	1	35
12	1	1	1	1	28	24	462	312	1	35
13	1	1	1	1	28	24	462	312	1	35
14	1	1	1	1	24	24	462	312	1	35
15	1	1	1	1	28	24	462	312	1	35
0	1	1	1	1	28	24	462	312	1	35
1	1	1	1	1	28	24	463	312	1	35
2	1	1	1	1	31	24	463	312	1	35
3	1	1	1	1	28	24	463	312	1	35
4	1	1	1	1	28	24	463	312	1	35
5	1	1	1	1	28	24	463	312	1	35
6	1	1	1	1	31	24	463	312	1	35
7	1	1	1	1	28	24	465	312	1	35
8	1	1	1	1	28	24	467	312	1	35
9	1	1	1	1	28	24	467	312	1	35
10	1	1	1	1	36	28	467	312	1	35
11	1	1	1	1	36	28	467	312	1	35
12	1	1	1	1	28	24	467	312	1	35
13	1	1	1	1	36	28	467	312	1	35
14	1	1	1	1	31	24	467	312	1	35
15	1	1	1	1	28	24	465	312	1	35
0	1	1	1	1	28	24	465	312	1	35
1	1	1	1	1	28	24	465	312	1	35
2	1	1	1	1	28	24	463	312	1	35
3	1	1	1	1	28	24	463	312	1	35
4	1	1	1	1	31	24	463	312	1	35
5	1	1	1	1	28	24	465	312	1	35
6	1	1	1	1	24	24	465	312	1	35
7	1	1	1	1	28	24	467	312	1	35
8	1	1	1	1	28	24	467	312	1	35
9	1	1	1	1	28	24	467	312	1	35
10	1	1	1	1	28	24	467	312	1	35
11	1	1	1	1	28	24	467	312	1	35
12	1	1	1	1	28	24	467	312	1	35
13	1	1	1	1	31	24	468	312	1	35
14	1	1	1	1	25	24	470	312	1	35
15	1	1	1	1	28	24	470	312	1	35
0	1	1	1	1	31	24	467	312	1	35
1	1	1	1	1	28	24	467	312	1	35
2	1	1	1	1	36	28	467	312	1	35
3	1	1	1	1	31	24	467	312	1	35
4	1	1	1	1	28	24	467	312	1	35
5	1	1	1	1	24	24	467	312	1	35
6	1	1	1	1	28	24	467	312	1	35
7	1	1	1	1	24	24	467	312	1	35
8	1	1	1	1	28	24	467	312	1	35
9	1	1	1	1	28	24	470	312	1	35
10	1	1	1	1	28	24	472	312	1	35
11	1	1	1	1	24	24	472	312	1	35
12	1	1	1	1	28	24	472	312	1	35
13	1	1	1	1	28	24	473	312	1	35
14	1	1	1	1	28	24	476	312	1	35
15	1	1	1	1	28	24	476	312	1	35
0	1	1	1	1	28	24	478	312	1	35
1	1	1	1	1	28	24	480	312	1	35
2	1	1	1	1	28	24	480	312	1	35
3	1	1	1	1	28	24	480	312	1	35
4	1	1	1	1	28	24	480	312	1	35
5	1	1	1	1	28	24	480	312	1	35
6	1	1	1	1	24	24	478	312	1	35
7	1	1	1	1	28	24	478	312	1	35
8	1	1	1	1	28	24	476	312	1	35
9	1	1	1	1	31	24	476	312	1	35
10	1	1	1	1	28	24	476	312	1	35
11	1	1	1	1	28	24	476	312	1	35
12	1	1	1	1	28	24	476	312	1	35
13	1	1	1	1	36	28	476	312	1	35
14	1	1	1	1	31	28	476	312	1	35
15	1	1	1	1	28	22	476	312	1	35
0	1	1	1	1	24	24	476	312	1	35
1	1	1	1	1	28	24	476	312	1	35
2	1	1	1	1	28	24	476	310	1	35
3	1	1	1	1	28	24	476	312	1	35
4	1	1	1	1	28	24	476	312	1	35
5	1	1	1	1	31	24	476	312	1	35
6	1	1	1	1	31	24	476	312	1	35
7	1	1	1	1	28	24	478	312	1	35
8	1	1	1	1	31	24	478	312	1	35
9	1	1	1	1	28	24	478	310	1	35
10	1	1	1	1	31	24	478	312	1	35
11	1	1	1	1	31	24	478	310	1	35
12	1	1	1	1	28	24	478	312	1	35
13	1	1	1	1	24	24	480	310	1	35
14	1	1	1	1	28	24	480	312	1	35
15	1	1	1	1	24	24	480	312	1	35
0	1	1	1	1	28	24	480	310	1	35
1	1	1	1	1	31	24	480	312	1	35
2	1	1	1	1	28	24	480	312	1	35
3	1	1	1	1	28	24	480	312	1	35
4	1	1	1	1	28	24	480	312	1	35
5	1	1	1	1	28	24	480	312	1	35
6	1	1	1	1	31	25	480	312	1	35
7	1	1	1	1	24	24	480	312	1	35
8	1	1	1	1	28	24	480	312	1	35
9	1	1	1	1	28	24	480	312	1	35
10	1	1	1	1	28	24	480	312	1	35
11	1	1	1	1	31	24	480	312	1	35
12	1	1	1	1	28	24	480	312	1	35
13	1	1	1	1	31	25	480	312	1	35
14	1	1	1	1	25	24	480	312	1	35
15	1	1	1	1	28	24	480	312	1	35
0	1	1	1	1	31	24	480	312	1	35
1	1	1	1	1	24	24	480	312	1	35
2	1	1	1	1	28	24	480	312	1	35
3	1	1	1	1	28	24	480	312	1	35
4	1	1	1	1	28	24	480	312	1	35
5	1	1	1	1	28	24	480	312	1	35
6	1	1	1	1	28	24	480	312	1	35
7	1	1	1	1	28	24	480	312	1	35
8	1	1	1	1	28	24	480	312	1	35
9	1	1	1	1	31	24	480	312	1	35
10	1	1	1	1	36	28	480	312	1	35
11	1	1	1	1	31	24	480	312	1	35
12	1	1	1	1	28	24	480	312	1	35
13	1	1	1	1	24	24	480	312	1	35
14	1	1	1	1	28	24	480	312	1	35
15	1	1	1	1	28	24	480	312	1	35
0	1	1	1	1	24	24	480	312	1	35
1	1	1	1	1	31	24	480	312	1	35
2	1	1	1	1	28	24	480	312	1	35
3	1	1	1	1	28	24	480	312	1	35
4	1	1	1	1	28	24	480	312	1	35
5	1	1	1	1	28	24	480	312	1	35
6	1	1	1	1	36	28	480	312	1	35
7	1	1	1	1	28	24	481	312	1	35
8	1	1	1	1	28	24	481	312	1	35
9	1	1	1	1	28	24	481	312	1	35
10	1	1	1	1	31	24	481	312	1	35
11	1	1	1	1	28	24	483	312	1	35
12	1	1	1	1	28	24	483	312	1	35
13	1	1	1	1	28	24	483	312	1	35
14	1	1	1	1	28	24	483	312	1	35
15	1	1	1	1	31	24	486	312	1	35
0	1	1	1	1	31	24	486	312	1	35
1	1	1	1	1	24	24	487	312	1	35
2	1	1	1	1	28	24	487	312	1	35
3	1	1	1	1	28	24	487	312	1	35
4	1	1	1	1	28	24	487	312	1	35
5	1	1	1	1	28	24	487	312	1	35
6	1	1	1	1	31	24	487	312	1	35
7	1	1	1	1	28	24	487	312	1	35
8	1	1	1	1	31	24	487	312	1	35
9	1	1	1	1	31	24	487	312	1	35
10	1	1	1	1	28	24	487	312	1	35
11	1	1	1	1	28	24	487	312	1	35
12	1	1	1	1	24	24	487	312	1	35
13	1	1	1	1	28	24	487	312	1	35
14	1	1	1	1	31	24	487	312	1	35
15	1	1	1	1	31	24	487	312	1	35
0	1	1	1	1	28	24	487	312	1	35
1	1	1	1	1	36	28	487	312	1	35
2	1	1	1	1	31	24	487	312	1	35
3	1	1	1	1	28	24	487	312	1	35
4	1	1	1	1	28	24	487	312	1	35
5	1	1	1	1	31	24	487	312	1	35
6	1	1	1	1	28	24	487	312	1	35
7	1	1	1	1	36	28	487	312	1	35
8	1	1	1	1	28	24	487	312	1	35
9	1	1	1	1	31	24	487	312	1	35
10	1	1	1	1	28	24	487	312	1	35
11	1	1	1	1	31	24	487	312	1	35
12	1	1	1	1	31	24	487	312	1	35
13	1	1	1	1	28	24	487	312	1	35
14	1	1	1	1	24	24	487	312	1	35
15	1	1	1	1	31	24	487	312	1	35
0	1	1	1	1	28	24	487	312	1	35
1	1	1	1	1	24	24	487	312	1	35
2	1	1	1	1	28	24	489	312	1	35
3	1	1	1	1	31	24	489	312	1	35
4	1	1	1	1	28	24	489	312	1	35
5	1	1	1	1	31	24	489	312	1	35
6	1	1	1	1	28	24	492	312	1	35
7	1	1	1	1	31	24	492	312	1	35
8	1	1	1	1	28	24	492	312	1	35
9	1	1	1	1	31	24	489	312	1	35
10	1	1	1	1	28	24	489	312	1	35
11	1	1	1	1	24	24	487	312	1	35
12	1	1	1	1	28	24	487	312	1	35
13	1	1	1	1	28	24	487	312	1	35
14	1	1	1	1	28	24	487	312	1	35
15	1	1	1	1	28	24	487	312	1	35
0	1	1	1	1	28	24	487	312	1	35
1	1	1	1	1	28	24	487	312	1	35
2	1	1	1	1	28	24	487	312	1	35
3	1	1	1	1	31	24	487	312	1	35
4	1	1	1	1	31	24	487	312	1	35
5	1	1	1	1	31	24	487	312	1	35
6	1	1	1	1	24	24	487	312	1	35
7	1	1	1	1	31	24	487	312	1	35
8	1	1	1	1	28	24	487	312	1	35
9	1	1	1	1	28	24	487	312	1	35
10	1	1	1	1	24	24	487	312	1	35
11	1	1	1	1	28	24	487	312	1	35
12	1	1	1	1	28	24	487	312	1	35
13	1	1	1	1	28	24	487	312	1	35
14	1	1	1	1	25	24	487	312	1	35
15	1	1	1	1	31	24	487	312	1	35
0	1	1	1	1	31	24	487	312	1	35
1	1	1	1	1	24	24	487	312	1	35
2	1	1	1	1	28	24	487	312	1	35
3	1	1	1	1	28	24	487	312	1	35
4	1	1	1	1	28	24	487	312	1	35
5	1	1	1	1	31	24	487	312	1	35
6	1	1	1	1	36	28	487	312	1	35
7	1	1	1	1	35	28	486	312	1	35
8	1	1	1	1	28	24	486	312	1	35
9	1	1	1	1	28	24	487	312	1	35
10	1	1	1	1	28	24	487	312	1	35
11	1	1	1	1	28	24	487	312	1	35
12	1	1	1	1	28	24	487	312	1	35
13	1	1	1	1	28	24	487	312	1	35
14	1	1	1	1	31	24	487	312	1	35
15	1	1	1	1	31	24	487	312	1	35
0	1	1	1	1	31	24	487	312	1	35
1	1	1	1	1	28	24	489	312	1	35
2	1	1	1	1	28	24	489	312	1	35
3	1	1	1	1	28	24	489	312	1	35
4	1	1	1	1	28	24	489	312	1	35
5	1	1	1	1	28	24	489	312	1	35
6	1	1	1	1	31	24	487	312	1	35
7	1	1	1	1	31	24	487	312	1	35
8	1	1	1	1	28	24	487	312	1	35
9	1	1	1	1	31	24	487	312	1	35
10	1	1	1	1	28	24	487	312	1	35
11	1	1	1	1	24	24	486	312	1	35
12	1	1	1	1	28	24	483	312	1	35
13	1	1	1	1	24	24	483	312	1	35
14	1	1	1	1	24	24	483	312	1	35
15	1	1	1	1	28	24	483	312	1	35
0	1	1	1	1	31	24	483	312	1	35
1	1	1	1	1	24	24	483	312	1	35
2	1	1	1	1	28	24	483	312	1	35
3	1	1	1	1	28	24	484	312	1	35
4	1	1	1	1	24	24	486	312	1	35
5	1	1	1	1	31	24	487	312	1	35
6	1	1	1	1	28	24	487	312	1	35
7	1	1	1	1	28	24	487	312	1	35
8	1	1	1	1	28	24	487	312	1	35
9	1	1	1	1	28	24	487	312	1	35
10	1	1	1	1	28	24	487	312	1	35
11	1	1	1	1	28	24	487	312	1	35
12	1	1	1	1	28	24	487	312	1	35
13	1	1	1	1	31	24	487	312	1	35
14	1	1	1	1	28	24	487	312	1	35
15	1	1	1	1	28	24	487	312	1	35
0	1	1	1	1	28	24	487	312	1	35
1	1	1	1	1	24	24	487	312	1	35
2	1	1	1	1	28	24	487	312	1	35
3	1	1	1	1	24	24	487	312	1	35
4	1	1	1	1	28	24	487	312	1	35
5	1	1	1	1	31	24	489	312	1	35
6	1	1	1	1	31	24	492	312	1	35
7	1	1	1	1	31	24	492	312	1	35
8	1	1	1	1	31	24	492	312	1	35
9	1	1	1	1	28	24	494	312	1	35
10	1	1	1	1	31	24	494	312	1	35
11	1	1	1	1	31	24	494	312	1	35
12	1	1	1	1	28	24	494	312	1	35
13	1	1	1	1	31	24	492	312	1	35
14	1	1	1	1	25	24	492	312	1	35
15	1	1	1	1	28	24	492	312	1	35
0	1	1	1	1	28	24	492	312	1	35
1	1	1	1	1	28	24	489	312	1	35
2	1	1	1	1	28	24	487	312	1	35
3	1	1	1	1	28	24	487	312	1	35
4	1	1	1	1	31	24	487	312	1	35
5	1	1	1	1	31	24	487	312	1	35
6	1	1	1	1	31	24	487	312	1	35
7	1	1	1	1	24	22	487	312	1	35
8	1	1	1	1	28	24	487	312	1	35
9	1	1	1	1	31	24	489	310	1	35
10	1	1	1	1	31	24	489	310	1	35
11	1	1	1	1	28	24	492	310	1	35
12	1	1	1	1	31	24	492	310	1	35
13	1	1	1	1	28	24	492	312	1	35
14	1	1	1	1	28	24	492	310	1	35
15	1	1	1	1	28	24	492	312	1	35
0	1	1	1	1	28	24	492	312	1	35
1	1	1	1	1	28	24	492	312	1	35
2	1	1	1	1	28	24	492	312	1	35
3	1	1	1	1	28	24	492	312	1	35
4	1	1	1	1	28	24	492	312	1	35
5	1	1	1	1	28	24	492	312	1	35
6	1	1	1	1	28	24	492	312	1	35
7	1	1	1	1	28	24	489	312	1	35
8	1	1	1	1	28	24	489	312	1	35
9	1	1	1	1	31	24	489	312	1	35
10	1	1	1	1	28	24	489	312	1	35
11	1	1	1	1	31	24	489	312	1	35
12	1	1	1	1	24	24	489	312	1	35
13	1	1	1	1	36	28	492	312	1	35
14	1	1	1	1	24	24	492	312	1	35
15	1	1	1	1	24	24	492	312	1	35
0	1	1	1	1	28	24	492	312	1	35
1	1	1	1	1	36	28	492	312	1	35
2	1	1	1	1	28	24	492	312	1	35
3	1	1	1	1	28	24	494	312	1	35
4	1	1	1	1	36	28	494	312	1	35
5	1	1	1	1	31	24	494	312	1	35
6	1	1	1	1	28	24	494	312	1	35
7	1	1	1	1	28	24	495	312	1	35
8	1	1	1	1	36	28	496	312	1	35
9	1	1	1	1	25	24	496	312	1	35
10	1	1	1	1	24	24	496	312	1	35
11	1	1	1	1	24	24	496	312	1	35
12	1	1	1	1	36	28	496	312	2	35
13	1	1	1	1	31	24	496	312	1	35
14	1	1	1	1	31	24	496	312	1	35
15	1	1	1	1	36	28	496	312	1	35
0	1	1	1	1	28	24	496	312	1	35
1	1	1	1	1	28	24	496	312	1	35
2	1	1	1	1	28	24	496	312	1	35
3	1	1	1	1	24	24	496	312	1	35
4	1	1	1	1	28	24	496	312	1	35
5	1	1	1	1	28	24	496	312	1	35
6	1	1	1	1	24	24	496	312	1	35
7	1	1	1	1	28	24	496	312	1	35
8	1	1	1	1	28	24	496	312	1	35
9	1	1	1	1	28	24	496	312	1	35
10	1	1	1	1	28	24	495	312	1	35
11	1	1	1	1	28	24	494	312	1	35
12	1	1	1	1	28	24	494	312	1	35
13	1	1	1	1	28	24	494	312	1	35
14	1	1	1	1	30	25	494	312	1	35
15	1	1	1	1	24	24	494	312	1	35
0	1	1	1	1	28	24	496	312	1	35
1	1	1	1	1	24	24	496	312	1	35
2	1	1	1	1	31	25	496	312	1	35
3	1	1	1	1	24	24	496	312	1	35
4	1	1	1	1	28	24	496	312	1	35
5	1	1	1	1	36	28	496	312	1	35
6	1	1	1	1	28	24	496	312	1	35
7	1	1	1	1	24	24	496	312	1	35
8	1	1	1	1	28	24	496	312	1	35
9	1	1	1	1	36	28	496	312	1	35
10	1	1	1	1	28	24	496	312	1	35
11	1	1	1	1	28	24	496	312	1	35
12	1	1	1	1	31	24	496	312	1	35
13	1	1	1	1	28	24	496	312	1	35
14	1	1	1	1	28	24	496	312	1	35
15	1	1	1	1	31	24	496	312	1	35
0	1	1	1	1	31	24	495	312	1	35
1	1	1	1	1	28	24	494	312	1	35
2	1	1	1	1	28	24	494	312	1	35
3	1	1	1	1	31	24	494	312	1	35
4	1	1	1	1	31	24	494	312	1	35
5	1	1	1	1	28	24	494	312	1	35
6	1	1	1	1	35	28	494	312	1	35
7	1	1	1	1	31	24	494	312	1	35
8	1	1	1	1	28	24	494	312	1	35
9	1	1	1	1	28	24	494	312	1	35
10	1	1	1	1	31	24	494	312	1	35
11	1	1	1	1	28	24	494	312	1	35
12	1	1	1	1	28	24	494	312	1	35
13	1	1	1	1	28	24	494	312	1	35
14	1	1	1	1	28	25	495	312	1	35
15	1	1	1	1	31	24	496	312	1	35
0	1	1	1	1	31	25	496	312	1	35
1	1	1	1	1	24	24	496	312	1	35
2	1	1	1	1	28	24	496	312	1	35
3	1	1	1	1	24	24	496	312	1	35
4	1	1	1	1	31	24	496	312	1	35
5	1	1	1	1	31	24	496	312	1	35
6	1	1	1	1	31	24	496	312	1	35
7	1	1	1	1	31	24	496	312	1	35
8	1	1	1	1	28	24	497	312	1	35
9	1	1	1	1	28	24	497	312	1	35
10	1	1	1	1	31	24	497	312	1	35
11	1	1	1	1	28	22	497	312	1	35
12	1	1	1	1	31	24	496	312	1	35
13	1	1	1	1	28	24	496	312	1	35
14	1	1	1	1	28	24	496	312	1	35
15	1	1	1	1	31	24	496	312	1	35
0	1	1	1	1	28	24	496	312	1	35
1	1	1	1	1	28	24	496	312	1	35
2	1	1	1	1	24	24	496	312	1	35
3	1	1	1	1	24	24	496	312	1	35
4	1	1	1	1	28	24	496	312	1	35
5	1	1	1	1	28	24	496	312	1	35
6	1	1	1	1	24	24	494	312	1	35
7	1	1	1	1	28	24	494	312	1	35
8	1	1	1	1	36	28	494	312	1	35
9	1	1	1	1	28	24	494	312	1	35
10	1	1	1	1	28	24	494	312	1	35
11	1	1	1	1	28	24	494	312	1	35
12	1	1	1	1	28	24	494	312	1	35
13	1	1	1	1	28	24	494	312	1	35
14	1	1	1	1	30	24	496	312	1	35
15	1	1	1	1	28	24	496	312	1	35
0	1	1	1	1	28	24	496	312	1	35
1	1	1	1	1	28	24	496	312	1	35
2	1	1	1	1	28	24	497	312	1	35
3	1	1	1	1	28	24	497	312	1	35
4	1	1	1	1	31	24	497	312	1	35
5	1	1	1	1	28	24	499	312	1	35
6	1	1	1	1	28	24	499	312	1	35
7	1	1	1	1	28	24	497	312	1	35
8	1	1	1	1	28	24	497	312	1	35
9	1	1	1	1	28	24	497	312	1	35
10	1	1	1	1	28	24	496	312	1	35
11	1	1	1	1	24	24	496	312	1	35
12	1	1	1	1	28	24	496	312	1	35
13	1	1	1	1	28	24	496	312	1	35
14	1	1	1	1	31	24	496	312	1	35
15	1	1	1	1	28	24	494	312	1	35
0	1	1	1	1	31	24	494	312	1	35
1	1	1	1	1	31	24	494	312	1	35
2	1	1	1	1	28	24	494	312	1	35
3	1	1	1	1	28	24	494	312	1	35
4	1	1	1	1	28	24	494	312	1	35
5	1	1	1	1	31	24	496	310	1	35
6	1	1	1	1	24	24	496	310	1	35
7	1	1	1	1	28	24	496	310	1	35
8	1	1	1	1	28	24	496	310	1	35
9	1	1	1	1	28	24	497	310	1	35
10	1	1	1	1	31	24	499	310	1	35
11	1	1	1	1	28	24	499	310	1	35
12	1	1	1	1	28	24	502	310	1	35
13	1	1	1	1	28	24	504	310	1	35
14	1	1	1	1	24	24	504	312	1	35
15	1	1	1	1	28	24	504	310	1	35
0	1	1	1	1	28	24	504	310	1	35
1	1	1	1	1	28	24	504	310	1	35
2	1	1	1	1	24	24	504	310	1	35
3	1	1	1	1	24	24	504	310	1	35
4	1	1	1	1	28	24	504	310	1	35
5	1	1	1	1	28	24	504	310	1	35
6	1	1	1	1	28	24	504	310	1	35
7	1	1	1	1	31	24	504	310	1	35
8	1	1	1	1	28	24	504	310	1	35
9	1	1	1	1	28	24	504	310	1	35
10	1	1	1	1	28	24	504	310	1	35
11	1	1	1	1	28	24	504	310	1	35
12	1	1	1	1	28	24	504	310	1	35
13	1	1	1	1	28	24	504	310	1	35
14	1	1	1	1	31	24	504	310	1	35
15	1	1	1	1	28	24	504	310	1	35
0	1	1	1	1	28	24	504	310	1	35
1	1	1	1	1	35	28	504	310	1	35
2	1	1	1	1	31	24	505	310	1	35
3	1	1	1	1	28	24	505	310	1	35
4	1	1	1	1	28	24	508	310	1	35
5	1	1	1	1	31	24	508	310	1	35
6	1	1	1	1	24	24	508	310	1	35
7	1	1	1	1	31	24	508	310	1	35
8	1	1	1	1	31	24	510	312	1	35
9	1	1	1	1	28	24	510	312	1	35
10	1	1	1	1	31	24	511	312	1	35
11	1	1	1	1	28	24	511	312	1	35
12	1	1	1	1	28	24	512	312	1	35
13	1	1	1	1	31	24	512	312	1	35
14	1	1	1	1	24	24	512	312	1	35
15	1	1	1	1	28	24	513	312	1	35
0	1	1	1	1	28	24	513	312	1	35
1	1	1	1	1	24	24	515	312	1	35
2	1	1	1	1	28	24	515	312	1	35
3	1	1	1	1	28	24	515	312	1	35
4	1	1	1	1	28	24	518	312	1	35
5	1	1	1	1	28	24	519	312	1	35
6	1	1	1	1	31	24	519	312	1	35
7	1	1	1	1	28	24	519	312	1	35
8	1	1	1	1	28	24	519	312	1	35
9	1	1	1	1	31	24	519	312	1	35
10	1	1	1	1	28	24	524	312	1	35
11	1	1	1	1	28	24	524	312	1	35
12	1	1	1	1	28	24	524	312	1	35
13	1	1	1	1	28	24	526	312	1	35
14	1	1	1	1	28	24	526	312	1	35
15	1	1	1	1	28	22	527	312	1	35
0	1	1	1	1	28	24	527	312	1	35
1	1	1	1	1	28	24	527	312	1	35
2	1	1	1	1	31	24	527	312	1	35
3	1	1	1	1	24	24	526	312	1	35
4	1	1	1	1	28	24	526	312	1	35
5	1	1	1	1	28	24	524	312	1	35
6	1	1	1	1	28	24	524	312	1	35
7	1	1	1	1	28	24	519	312	1	35
8	1	1	1	1	28	24	519	312	1	35
9	1	1	1	1	31	24	519	312	1	35
10	1	1	1	1	28	24	515	312	1	35
11	1	1	1	1	28	24	515	312	1	35
12	1	1	1	1	31	24	512	312	1	35
13	1	1	1	1	28	24	511	312	1	35
14	1	1	1	1	25	24	511	312	1	35
15	1	1	1	1	31	24	508	312	1	35
0	1	1	1	1	31	24	508	312	1	35
1	1	1	1	1	24	24	508	312	1	35
2	1	1	1	1	28	24	505	312	1	35
3	1	1	1	1	28	24	504	312	1	35
4	1	1	1	1	31	24	504	312	1	35
5	1	1	1	1	28	24	504	312	1	35
6	1	1	1	1	36	28	504	312	1	35
7	1	1	1	1	31	24	504	312	1	35
8	1	1	1	1	28	24	504	312	1	35
9	1	1	1	1	28	24	499	312	1	35
10	1	1	1	1	28	24	499	312	1	35
11	1	1	1	1	28	24	497	312	1	35
12	1	1	1	1	28	24	496	312	1	35
13	1	1	1	1	31	24	496	312	1	35
14	1	1	1	1	28	24	494	312	1	35
15	1	1	1	1	31	24	492	312	1	35
0	1	1	1	1	28	24	489	312	1	35
1	1	1	1	1	31	24	487	312	1	35
2	1	1	1	1	31	24	487	312	1	35
3	1	1	1	1	31	24	487	312	1	35
4	1	1	1	1	28	24	487	312	1	35
5	1	1	1	1	28	24	487	312	1	35
6	1	1	1	1	24	24	487	312	1	35
7	1	1	1	1	31	24	489	312	1	35
8	1	1	1	1	31	24	492	312	1	35
9	1	1	1	1	31	24	492	312	1	35
10	1	1	1	1	31	24	494	312	1	35
11	1	1	1	1	31	24	496	312	1	35
12	1	1	1	1	28	24	496	312	1	35
13	1	1	1	1	31	24	496	312	1	35
14	1	1	1	1	30	24	496	312	1	35
15	1	1	1	1	28	24	496	312	1	35
0	1	1	1	1	28	24	496	312	1	35
1	1	1	1	1	31	24	496	312	1	35
2	1	1	1	1	28	24	496	312	1	35
3	1	1	1	1	31	24	496	312	1	35
4	1	1	1	1	28	24	496	312	1	35
5	1	1	1	1	28	24	496	312	1	35
6	1	1	1	1	31	24	494	312	1	35
7	1	1	1	1	28	24	492	312	1	35
8	1	1	1	1	31	24	492	312	1	35
9	1	1	1	1	31	24	492	312	1	35
10	1	1	1	1	28	24	492	312	1	35
11	1	1	1	1	31	24	489	312	1	35
12	1	1	1	1	28	24	489	312	1	35
13	1	1	1	1	24	24	492	312	1	35
14	1	1	1	1	28	24	492	312	1	35
15	1	1	1	1	28	24	492	312	1	35
0	1	1	1	1	31	24	492	312	1	35
1	1	1	1	1	28	24	492	312	1	35
2	1	1	1	1	31	24	492	312	1	35
3	1	1	1	1	24	24	494	312	1	35
4	1	1	1	1	31	24	494	312	1	35
5	1	1	1	1	28	24	495	312	1	35
6	1	1	1	1	28	24	496	312	1	35
7	1	1	1	1	28	24	496	312	1	35
8	1	1	1	1	31	24	496	312	1	35
9	1	1	1	1	28	24	496	312	1	35
10	1	1	1	1	31	24	496	312	1	35
11	1	1	1	1	28	24	496	312	1	35
12	1	1	1	1	28	24	496	312	1	35
13	1	1	1	1	28	24	496	312	1	35
14	1	1	1	1	25	24	496	312	1	35
15	1	1	1	1	28	24	496	312	1	35
0	1	1	1	1	31	24	496	312	1	35
1	1	1	1	1	24	24	496	312	1	35
2	1	1	1	1	28	24	496	312	1	35
3	1	1	1	1	28	24	496	312	1	35
4	1	1	1	1	28	24	496	312	1	35
5	1	1	1	1	28	24	494	312	1	35
6	1	1	1	1	31	24	492	312	1	35
7	1	1	1	1	28	24	492	312	1	35
8	1	1	1	1	31	24	487	312	1	35
9	1	1	1	1	28	24	487	312	1	35
10	1	1	1	1	28	24	486	312	1	35
11	1	1	1	1	28	24	483	312	1	35
12	1	1	1	1	28	24	480	312	1	35
13	1	1	1	1	28	24	476	312	1	35
14	1	1	1	1	31	24	472	312	1	35
15	1	1	1	1	28	24	467	312	1	35
0	1	1	1	1	28	24	463	312	1	35
1	1	1	1	1	36	28	462	312	1	35
2	1	1	1	1	31	24	460	312	1	35
3	1	1	1	1	28	22	455	312	1	35
4	1	1	1	1	31	24	455	312	1	35
5	1	1	1	1	31	24	455	312	1	35
6	1	1	1	1	24	24	457	312	1	35
7	1	1	1	1	31	24	462	312	1	35
8	1	1	1	1	31	24	465	312	1	35
9	1	1	1	1	31	24	472	312	1	35
10	1	1	1	1	28	24	480	312	1	35
11	1	1	1	1	38	28	489	312	1	35
12	1	1	1	1	28	24	504	312	1	35
13	1	1	1	1	31	24	518	312	1	35
14	1	1	1	1	24	24	536	312	1	35
15	1	1	1	1	38	28	551	312	1	35
0	1	1	1	1	28	24	575	312	1	35
1	1	1	1	1	31	25	600	312	1	35
2	1	1	1	1	28	24	624	312	1	35
3	1	1	1	1	31	24	649	312	1	35
4	1	1	1	1	31	24	679	312	1	35
5	1	1	1	1	31	25	707	312	1	35
6	1	1	1	1	31	24	739	312	1	35
7	1	1	1	1	28	24	768	312	1	35
8	1	1	1	1	28	24	799	312	1	35
9	1	1	1	1	31	25	828	312	1	35
10	1	1	1	1	28	24	854	312	1	35
11	1	1	1	1	24	24	878	312	1	35
12	1	1	1	1	28	24	899	312	1	35
13	1	1	1	1	28	24	920	312	1	35
14	1	1	1	1	28	24	934	312	1	35
15	1	1	1	1	24	24	944	312	1	35
0	1	1	1	1	31	24	952	312	1	35
1	1	1	1	1	28	24	956	312	1	35
2	1	1	1	1	28	24	953	312	1	35
3	1	1	1	1	24	24	948	312	1	35
4	1	1	1	1	28	24	940	312	1	35
5	1	1	1	1	28	24	926	312	1	35
6	1	1	1	1	28	24	908	312	1	35
7	1	1	1	1	28	24	888	312	1	35
8	1	1	1	1	31	24	862	312	1	35
9	1	1	1	1	28	24	831	312	1	35
10	1	1	1	1	24	24	803	310	1	35
11	1	1	1	1	28	24	771	310	1	35
12	1	1	1	1	28	24	736	310	1	35
13	1	1	1	1	28	24	704	310	1	35
14	1	1	1	1	25	24	668	310	1	35
15	1	1	1	1	31	24	633	310	1	35
0	1	1	1	1	24	24	600	310	1	35
1	1	1	1	1	24	24	569	308	1	35
2	1	1	1	1	28	24	542	310	1	35
3	1	1	1	1	28	24	515	310	1	35
4	1	1	1	1	28	24	494	307	1	35
5	1	1	1	1	31	24	476	307	1	35
6	1	1	1	1	24	24	462	307	1	35
7	1	1	1	1	28	24	451	307	1	35
8	1	1	1	1	28	24	448	307	1	35
9	1	1	1	1	28	24	441	307	1	35
10	1	1	1	1	28	24	441	307	1	35
11	1	1	1	1	28	24	444	310	1	35
12	1	1	1	1	31	24	449	307	1	35
13	1	1	1	1	31	24	455	307	1	35
14	1	1	1	1	24	24	463	308	1	35
15	1	1	1	1	28	24	472	310	1	35
0	1	1	1	1	28	24	478	308	1	35
