-0.225969	
-0.227146	
-0.22554	
-0.220005	
-0.211952	
-0.205336	
-0.204545	
-0.209981	
-0.216382	
-0.217639	
-0.212212	
-0.20249	
-0.19234	
-0.187597	
-0.193546	
-0.207	
-0.21552	
-0.210442	
-0.197439	
-0.188742	
-0.188427	
-0.191546	
-0.194332	
-0.196565	
-0.194225	
-0.179798	
-0.154732	
-0.134827	
-0.13589	
-0.155973	
-0.176976	
-0.182943	
-0.173415	
-0.160487	
-0.156531	
-0.164021	
-0.174107	
-0.175061	
-0.163709	
-0.14822	
-0.139195	
-0.13962	
-0.144441	
-0.147604	
-0.147063	
-0.143795	
-0.138494	
-0.13055	
-0.120079	
-0.110051	
-0.104901	
-0.106188	
-0.110601	
-0.113232	
-0.111984	
-0.107925	
-0.102785	
-0.0978072	
-0.0942019	
-0.0928507	
-0.0937368	
-0.0970545	
-0.104518	
-0.117526	
-0.133443	
-0.145636	
-0.148919	
-0.144171	
-0.136586	
-0.130728	
-0.128687	
-0.13094	
-0.135598	
-0.137156	
-0.129819	
-0.114681	
-0.102455	
-0.103761	
-0.109027	
-0.0775835	
0.0360706	
0.221443	
0.378058	
0.374629	
0.170676	
-0.126844	
-0.347862	
-0.400267	
-0.32121	
-0.208257	
-0.12993	
-0.0998196	
-0.100764	
-0.110455	
-0.114399	
-0.111623	
-0.109223	
-0.108497	
-0.101461	
-0.0835095	
-0.0627521	
-0.0523019	
-0.0572949	
-0.0716089	
-0.082978	
-0.0801805	
-0.0609584	
-0.035688	
-0.0192799	
-0.0171993	
-0.022267	
-0.0255938	
-0.0256344	
-0.0240854	
-0.0184446	
-0.004989	
0.0128745	
0.026394	
0.0329813	
0.0400208	
0.0542269	
0.0717022	
0.0822505	
0.0806828	
0.0707498	
0.0596481	
0.0505465	
0.0392468	
0.018028	
-0.015194	
-0.0522694	
-0.0823049	
-0.10261	
-0.118163	
-0.131393	
-0.138323	
-0.135876	
-0.127817	
-0.12121	
-0.120444	
-0.125854	
-0.133847	
-0.136592	
-0.126938	
-0.108334	
-0.0963893	
-0.10397	
-0.124669	
-0.13693	
-0.127178	
-0.104962	
-0.0915912	
-0.0960816	
-0.106396	
-0.104178	
-0.0848125	
-0.0617627	
-0.0529051	
-0.0638733	
-0.0837342	
-0.095264	
-0.0895129	
-0.0721578	
-0.0570802	
-0.0535023	
-0.0585978	
-0.0625291	
-0.0603746	
-0.0574479	
-0.061515	
-0.0715114	
-0.0777486	
-0.0738948	
-0.0646138	
-0.058884	
-0.0596929	
-0.064069	
-0.0690293	
-0.0712777	
-0.0644073	
-0.0458822	
-0.0273775	
-0.0279803	
-0.0513744	
-0.0765649	
-0.0787611	
-0.0561061	
-0.0291273	
-0.0167347	
-0.020499	
-0.031079	
-0.0405283	
-0.0449921	
-0.0423782	
-0.0339165	
-0.0263665	
-0.0274675	
-0.0374702	
-0.0474496	
-0.0482297	
-0.0404173	
-0.0336357	
-0.0357669	
-0.0452097	
-0.0547032	
-0.0601686	
-0.0629144	
-0.0647534	
-0.0653711	
-0.0651515	
-0.0663762	
-0.0696583	
-0.0726917	
-0.0747819	
-0.0789749	
-0.0865539	
-0.0928528	
-0.0930045	
-0.0884797	
-0.0783515	
-0.0412359	
0.0596599	
0.230204	
0.398526	
0.44062	
0.285811	
0.00101147	
-0.250606	
-0.345352	
-0.287764	
-0.172287	
-0.0846433	
-0.0509109	
-0.0548311	
-0.071293	
-0.0821405	
-0.080684	
-0.0718503	
-0.0644313	
-0.0608969	
-0.0562421	
-0.045356	
-0.0295089	
-0.016969	
-0.0170342	
-0.0297283	
-0.0413512	
-0.0357479	
-0.012403	
0.0105522	
0.0140548	
-0.00323876	
-0.0249444	
-0.0328563	
-0.0215892	
-1.21495E-006	
0.0191933	
0.0307362	
0.0386175	
0.0486838	
0.0619689	
0.0748551	
0.0824275	
0.0810945	
0.0717069	
0.0617307	
0.0603484	
0.0679283	
0.0725234	
0.060513	
0.0301584	
-0.00790527	
-0.0422501	
-0.0689227	
-0.0889282	
-0.10295	
-0.111082	
-0.11479	
-0.116684	
-0.119089	
-0.122782	
-0.125916	
-0.125529	
-0.121612	
-0.117227	
-0.11277	
-0.104063	
-0.08979	
-0.0771355	
-0.0748314	
-0.082163	
-0.0895553	
-0.0895558	
-0.0829702	
-0.073979	
-0.0643652	
-0.0556592	
-0.0529313	
-0.0603815	
-0.0732633	
-0.07956	
-0.0719925	
-0.0553782	
-0.040626	
-0.0348619	
-0.0393115	
-0.052244	
-0.0688268	
-0.080145	
-0.0785114	
-0.0655528	
-0.052321	
-0.0500338	
-0.060943	
-0.0764292	
-0.0821469	
-0.0679168	
-0.0372377	
-0.00668477	
0.00794522	
0.00519445	
-0.0048168	
-0.0147357	
-0.0255367	
-0.037137	
-0.0413821	
-0.0308961	
-0.0114618	
0.00188182	
0.00180042	
-0.00357741	
-0.00199822	
0.00766443	
0.0152966	
0.0138666	
0.0100405	
0.0172045	
0.0377887	
0.0562785	
0.0539101	
0.0294115	
0.000759213	
-0.013784	
-0.0113605	
-0.000767437	
0.0095531	
0.0151028	
0.0127087	
0.00238979	
-0.00834372	
-0.00795352	
0.00809906	
0.0309861	
0.0456125	
0.0448303	
0.0348659	
0.0267772	
0.0299726	
0.0611953	
0.148957	
0.302519	
0.465542	
0.52492	
0.400421	
0.133181	
-0.132199	
-0.2643	
-0.24059	
-0.134231	
-0.0300871	
0.0333398	
0.0584719	
0.0583472	
0.0437159	
0.026508	
0.0188475	
0.024645	
0.0373777	
0.0484845	
0.0548308	
0.0569165	
0.0547838	
0.0499512	
0.0482905	
0.0550766	
0.0670094	
0.0739899	
0.0708409	
0.0639961	
0.0636194	
0.0710388	
0.0779288	
0.0780597	
0.0756934	
0.0797992	
0.0928679	
0.109174	
0.122295	
0.129781	
0.131183	
0.126854	
0.119839	
0.114534	
0.111855	
0.108888	
0.103724	
0.0963051	
0.0832679	
0.0570114	
0.0147059	
-0.0328035	
-0.0657709	
-0.0726275	
-0.0620108	
-0.0554072	
-0.0669223	
-0.0913575	
-0.111932	
-0.117405	
-0.110886	
-0.103979	
-0.104289	
-0.10929	
-0.112195	
-0.111619	
-0.112027	
-0.115044	
-0.115726	
-0.110227	
-0.102727	
-0.0999905	
-0.10162	
-0.101051	
-0.0951878	
-0.0874072	
-0.0805483	
-0.0730121	
-0.0647204	
-0.0615468	
-0.0680522	
-0.0781968	
-0.0798735	
-0.0696444	
-0.0577468	
-0.0556104	
-0.0617645	
-0.0638826	
-0.0537506	
-0.036763	
-0.025362	
-0.0247104	
-0.0274521	
-0.0238308	
-0.0147369	
-0.0107848	
-0.0181026	
-0.0294004	
-0.0320483	
-0.0222692	
-0.00760908	
0.00307621	
0.00758949	
0.00842233	
0.00810755	
0.00927627	
0.015232	
0.0258742	
0.0350759	
0.0367794	
0.0327925	
0.0300242	
0.0305273	
0.0294558	
0.0234127	
0.0149626	
0.00656934	
-0.00371778	
-0.0157412	
-0.0222114	
-0.0180734	
-0.0114333	
-0.015519	
-0.0302198	
-0.0413308	
-0.0400219	
-0.0339585	
-0.0349907	
-0.0432776	
-0.049436	
-0.048225	
-0.0444507	
-0.0443279	
-0.0394018	
0.00149587	
0.111921	
0.279094	
0.41451	
0.401827	
0.202389	
-0.0888373	
-0.311481	
-0.370095	
-0.293899	
-0.179962	
-0.100914	
-0.0701815	
-0.068244	
-0.0748206	
-0.0778369	
-0.0724251	
-0.0622134	
-0.0561678	
-0.0586677	
-0.0651928	
-0.069421	
-0.0700215	
-0.0678098	
-0.0613034	
-0.0502531	
-0.0405509	
-0.0395549	
-0.0464808	
-0.0516904	
-0.0465637	
-0.0317564	
-0.0150618	
-0.00280398	
0.00539399	
0.0132916	
0.0211003	
0.0250527	
0.0246646	
0.0258166	
0.0326951	
0.0403895	
0.0412951	
0.0366774	
0.0348129	
0.0374273	
0.0354014	
0.0214058	
0.000727136	
-0.0166956	
-0.0314306	
-0.0535047	
-0.0862242	
-0.119424	
-0.142063	
-0.154423	
-0.162537	
-0.166361	
-0.161496	
-0.150505	
-0.143973	
-0.147856	
-0.155402	
-0.15591	
-0.148335	
-0.141189	
-0.140257	
-0.142364	
-0.14244	
-0.140841	
-0.140318	
-0.140382	
-0.138635	
-0.133969	
-0.125089	
-0.11068	
-0.0950838	
-0.0882891	
-0.0943367	
-0.10412	
-0.105993	
-0.100229	
-0.0969424	
-0.10252	
-0.114351	
-0.126824	
-0.135434	
-0.135013	
-0.121323	
-0.0979296	
-0.0770532	
-0.069567	
-0.0760923	
-0.0897067	
-0.103371	
-0.111439	
-0.108882	
-0.0959752	
-0.0822489	
-0.0790005	
-0.086513	
-0.0931637	
-0.0886992	
-0.0747425	
-0.0604291	
-0.0515704	
-0.047832	
-0.0481446	
-0.0536445	
-0.0644382	
-0.076751	
-0.0847295	
-0.0840098	
-0.0745676	
-0.0625263	
-0.0576797	
-0.0650983	
-0.0793326	
-0.0904938	
-0.0950815	
-0.0960507	
-0.093703	
-0.0845776	
-0.0712517	
-0.0649402	
-0.0727466	
-0.0875357	
-0.0963992	
-0.0957122	
-0.0920467	
-0.0909447	
-0.0906824	
-0.0829579	
-0.0496114	
0.0367835	
0.185467	
0.345959	
0.412912	
0.306683	
0.0598334	
-0.192958	
-0.323439	
-0.305581	
-0.20871	
-0.117359	
-0.0696182	
-0.0569527	
-0.0571881	
-0.0584502	
-0.0605037	
-0.0646107	
-0.0676858	
-0.0659675	
-0.0595441	
-0.0496547	
-0.0353284	
-0.0182057	
-0.00720594	
-0.0102733	
-0.0223573	
-0.0296078	
-0.0260527	
-0.0185712	
-0.0143469	
-0.0118879	
-0.00785064	
-0.00447022	
-0.00347414	
0.00172823	
0.0188372	
0.0429717	
0.0584943	
0.0568539	
0.0471808	
0.0456544	
0.0575413	
0.0736404	
0.0828274	
0.082797	
0.0769415	
0.0663051	
0.0503842	
0.032531	
0.0161668	
-0.00406853	
-0.0379121	
-0.0831462	
-0.122255	
-0.140698	
-0.141913	
-0.138929	
-0.13815	
-0.138536	
-0.140024	
-0.142424	
-0.139398	
-0.124807	
-0.105464	
-0.0976275	
-0.107643	
-0.123155	
-0.127416	
-0.117513	
-0.104682	
-0.099982	
-0.103679	
-0.107473	
-0.103744	
-0.0922852	
-0.080321	
-0.0769673	
-0.08567	
-0.0998808	
-0.106985	
-0.0992943	
-0.082073	
-0.0691294	
-0.0694624	
-0.0790679	
-0.0864401	
-0.0850309	
-0.0787668	
-0.0751489	
-0.0751957	
-0.0735261	
-0.0681007	
-0.0641415	
-0.0648336	
-0.0639509	
-0.055098	
-0.0445193	
-0.0450879	
-0.0579848	
-0.0693298	
-0.0664677	
-0.0503312	
-0.0303934	
-0.0145337	
-0.00599735	
-0.00395857	
-0.00381941	
-0.000940557	
0.00391637	
0.00586589	
0.00259515	
-0.00426442	
-0.0135743	
-0.0245602	
-0.0324166	
-0.0316144	
-0.0257859	
-0.0272002	
-0.042304	
-0.0629021	
-0.0757619	
-0.076842	
-0.07194	
-0.0669319	
-0.0628962	
-0.0597073	
-0.0589224	
-0.0614217	
-0.0653971	
-0.0685898	
-0.0707128	
-0.0729632	
-0.0765424	
-0.0780103	
-0.0581048	
0.0202093	
0.178224	
0.367966	
0.469391	
0.378883	
0.116391	
-0.17117	
-0.328089	
-0.309636	
-0.189165	
-0.0707235	
-0.0104933	
-0.00566004	
-0.0259912	
-0.0431935	
-0.0439246	
-0.0320693	
-0.0218382	
-0.0229352	
-0.0301543	
-0.0304476	
-0.0204579	
-0.0112819	
-0.012285	
-0.0161515	
-0.00823211	
0.0116896	
0.0273803	
0.0281746	
0.0233488	
0.0284732	
0.0446909	
0.0597908	
0.0658183	
0.0671108	
0.0719493	
0.0832287	
0.0978792	
0.110493	
0.116677	
0.116201	
0.113469	
0.112953	
0.114766	
0.116373	
0.116619	
0.114713	
0.106857	
0.0886009	
0.0605585	
0.0277717	
-0.00614427	
-0.0391242	
-0.0653491	
-0.077349	
-0.0764838	
-0.0753156	
-0.0849226	
-0.10333	
-0.119842	
-0.126965	
-0.124098	
-0.113434	
-0.0986525	
-0.0867678	
-0.0851164	
-0.0944906	
-0.108251	
-0.119056	
-0.123977	
-0.123454	
-0.119526	
-0.116186	
-0.117485	
-0.122872	
-0.126784	
-0.124726	
-0.117869	
-0.110573	
-0.106135	
-0.106582	
-0.113	
-0.122608	
-0.12813	
-0.124418	
-0.114756	
-0.107654	
-0.108762	
-0.11791	
-0.130737	
-0.1397	
-0.137276	
-0.123737	
-0.10999	
-0.107662	
-0.116842	
-0.127101	
-0.129417	
-0.123641	
-0.11553	
-0.110405	
-0.109645	
-0.110299	
-0.107439	
-0.0983463	
-0.0849806	
-0.0726641	
-0.0669487	
-0.0701404	
-0.0781125	
-0.0816218	
-0.0750276	
-0.0642572	
-0.0620394	
-0.0734572	
-0.0893416	
-0.0961781	
-0.0901675	
-0.0788751	
-0.0708706	
-0.0675798	
-0.0655618	
-0.0630307	
-0.0612131	
-0.0604136	
-0.0579909	
-0.0520878	
-0.0460433	
-0.0456671	
-0.0509186	
-0.054407	
-0.0516009	
-0.0453608	
-0.0283861	
0.0332556	
0.171304	
0.352	
0.461795	
0.393554	
0.157225	
-0.113829	
-0.276073	
-0.285694	
-0.200047	
-0.100125	
-0.0310624	
0.000556882	
0.00540223	
-0.00160145	
-0.00701477	
-0.00481398	
0.00156475	
0.00422795	
-0.00263838	
-0.0197881	
-0.0427727	
-0.0630999	
-0.0713699	
-0.0623837	
-0.0391119	
-0.0108754	
0.014915	
0.0395722	
0.0687832	
0.100466	
0.121399	
0.12027	
0.10204	
0.0845846	
0.0808064	
0.0875158	
0.0931225	
0.0932118	
0.0949322	
0.105845	
0.122263	
0.132512	
0.130511	
0.121032	
0.110675	
0.0993628	
0.0839558	
0.0650615	
0.0451043	
0.0231714	
-0.0028002	
-0.0307374	
-0.0555956	
-0.0739565	
-0.0847666	
-0.0889361	
-0.0911572	
-0.0977221	
-0.108731	
-0.11683	
-0.11778	
-0.117277	
-0.121581	
-0.125892	
-0.120235	
-0.105173	
-0.092658	
-0.0898532	
-0.0906423	
-0.087219	
-0.082341	
-0.0831389	
-0.0882074	
-0.0896666	
-0.0860673	
-0.0846782	
-0.0899245	
-0.0963824	
-0.0959825	
-0.0875638	
-0.0764186	
-0.0678136	
-0.0640371	
-0.0653667	
-0.0703986	
-0.0758897	
-0.0783786	
-0.0763562	
-0.07126	
-0.0675437	
-0.0703253	
-0.0794316	
-0.0863747	
-0.082203	
-0.0694007	
-0.0606768	
-0.0632009	
-0.0690716	
-0.066161	
-0.0548607	
-0.0476344	
-0.0522198	
-0.0609	
-0.0588745	
-0.0408176	
-0.0171353	
-0.00440364	
-0.00990983	
-0.0247504	
-0.0322888	
-0.0244128	
-0.00917212	
-0.0014696	
-0.00756388	
-0.0211194	
-0.0331377	
-0.0410726	
-0.0473129	
-0.0539436	
-0.0623194	
-0.0738215	
-0.0868075	
-0.0955083	
-0.09608	
-0.0915571	
-0.0867664	
-0.0810611	
-0.072055	
-0.0650034	
-0.0700319	
-0.0875006	
-0.103858	
-0.106325	
-0.0915708	
-0.0498945	
0.0453485	
0.202836	
0.360967	
0.402498	
0.256541	
-0.0153452	
-0.258638	
-0.356541	
-0.310133	
-0.199405	
-0.0989378	
-0.0415564	
-0.0300833	
-0.0496739	
-0.073494	
-0.0800537	
-0.0698672	
-0.0565899	
-0.0452688	
-0.0300926	
-0.0105306	
0.00332411	
0.00381191	
-0.00459698	
-0.0114608	
-0.0103653	
-0.00126844	
0.0111358	
0.0189737	
0.0166052	
0.0087583	
0.0100367	
0.0311326	
0.0654651	
0.0935433	
0.102643	
0.0996859	
0.101761	
0.115946	
0.133515	
0.144053	
0.148411	
0.153126	
0.1574	
0.154018	
0.142329	
0.130994	
0.123812	
0.110236	
0.07788	
0.0316136	
-0.00820558	
-0.0279163	
-0.0345164	
-0.0438026	
-0.0593859	
-0.0703134	
-0.0689286	
-0.0632119	
-0.066285	
-0.0781863	
-0.0857125	
-0.0802639	
-0.0689087	
-0.0648443	
-0.0716999	
-0.0814449	
-0.0851643	
-0.0816738	
-0.0763238	
-0.074547	
-0.0768299	
-0.0786897	
-0.076163	
-0.0714594	
-0.0705263	
-0.0739103	
-0.0737496	
-0.063006	
-0.0454194	
-0.0330152	
-0.0346917	
-0.0491814	
-0.0674728	
-0.0796889	
-0.0811621	
-0.0748696	
-0.0678714	
-0.0640234	
-0.0614708	
-0.058366	
-0.0575963	
-0.0621498	
-0.0685397	
-0.0702324	
-0.0667788	
-0.0640261	
-0.0646033	
-0.0636884	
-0.057079	
-0.0494456	
-0.0498198	
-0.059727	
-0.0699768	
-0.0706032	
-0.0614791	
-0.0511113	
-0.0462477	
-0.0452053	
-0.0423284	
-0.0374948	
-0.0380121	
-0.0486876	
-0.0618756	
-0.0627843	
-0.0470137	
-0.0287569	
-0.0271723	
-0.0461252	
-0.0711194	
-0.0851675	
-0.0840981	
-0.0772244	
-0.0771908	
-0.0892146	
-0.106435	
-0.115209	
-0.108017	
-0.091709	
-0.0810237	
-0.0845728	
-0.0989337	
-0.114482	
-0.124154	
-0.127558	
-0.126157	
-0.108695	
-0.0431063	
0.0968496	
0.277427	
0.38933	
0.322932	
0.0787533	
-0.211224	
-0.389946	
-0.400342	
-0.303453	
-0.195391	
-0.12923	
-0.106289	
-0.107994	
-0.118539	
-0.129015	
-0.136456	
-0.141641	
-0.144573	
-0.143297	
-0.138733	
-0.137308	
-0.144819	
-0.158324	
-0.167158	
-0.16291	
-0.147239	
-0.129307	
-0.116656	
-0.109804	
-0.105032	
-0.100032	
-0.0956216	
-0.0934181	
-0.0936038	
-0.0944339	
-0.0924404	
-0.083632	
-0.0669634	
-0.0476475	
-0.034291	
-0.0295256	
-0.0252397	
-0.0117624	
0.00889135	
0.0245331	
0.0276125	
0.0218659	
0.0130324	
0.00086881	
-0.0157323	
-0.0327046	
-0.0461383	
-0.0594249	
-0.0783113	
-0.100035	
-0.113315	
-0.110749	
-0.098097	
-0.0894312	
-0.094196	
-0.109648	
-0.12485	
-0.131269	
-0.12985	
-0.128238	
-0.131447	
-0.136376	
-0.136581	
-0.131718	
-0.129903	
-0.139255	
-0.158539	
-0.178425	
-0.191277	
-0.196951	
-0.198847	
-0.197373	
-0.189433	
-0.173753	
-0.155256	
-0.142377	
-0.138585	
-0.137786	
-0.130952	
-0.116684	
-0.101789	
-0.0917187	
-0.0846505	
-0.0758801	
-0.0642353	
-0.052422	
-0.043297	
-0.0367602	
-0.0292255	
-0.0175148	
-0.00526086	
-0.00214047	
-0.0117803	
-0.0227139	
-0.0180356	
0.0055482	
0.0332123	
0.0469041	
0.0408353	
0.0226683	
0.00430774	
-0.00685208	
-0.010794	
-0.0118376	
-0.0129372	
-0.0127178	
-0.00820509	
0.000223375	
0.00797349	
0.0106939	
0.00834953	
0.00366812	
-0.00231505	
-0.010509	
-0.0192559	
-0.0229388	
-0.0181819	
-0.00998549	
-0.00757582	
-0.013381	
-0.0196583	
-0.0179288	
-0.00893365	
-0.000687778	
0.00147932	
-2.23869E-005	
0.000240887	
0.00453845	
0.0162761	
0.0531596	
0.145673	
0.301234	
0.461523	
0.516515	
0.391668	
0.129539	
-0.128987	
-0.255113	
-0.225236	
-0.113883	
-0.013597	
0.0319386	
0.0341	
0.0244687	
0.0229193	
0.031301	
0.0443089	
0.0581534	
0.0703979	
0.0788766	
0.0845014	
0.0919298	
0.10402	
0.116974	
0.12384	
0.122741	
0.119345	
0.120268	
0.12604	
0.132502	
0.136998	
0.139295	
0.137769	
0.130865	
0.123799	
0.127282	
0.144593	
0.163926	
0.169687	
0.159736	
0.145402	
0.135277	
0.126898	
0.116609	
0.10874	
0.107372	
0.104131	
0.0844588	
0.046537	
0.00581915	
-0.0220816	
-0.0365565	
-0.0465476	
-0.0564444	
-0.0638786	
-0.0676836	
-0.0704373	
-0.0732447	
-0.0732985	
-0.0674625	
-0.0553775	
-0.0391761	
-0.0223478	
-0.00819764	
0.00230985	
0.0100497	
0.014095	
0.0117255	
0.00532769	
0.00626603	
0.0251184	
0.0563423	
0.0782193	
0.0733249	
0.0478447	
0.0263018	
0.0265963	
0.0435195	
0.058063	
0.0590657	
0.0512978	
0.0438382	
0.0376059	
0.0287329	
0.0198491	
0.0197841	
0.0305874	
0.0419764	
0.043933	
0.039953	
0.0406828	
0.0478379	
0.0538286	
0.0563597	
0.0623432	
0.0744851	
0.083926	
0.0816272	
0.0700047	
0.0580179	
0.0503376	
0.0463213	
0.0447256	
0.0437227	
0.0394363	
0.0302026	
0.0210896	
0.0193833	
0.0255658	
0.0325286	
0.0340711	
0.0305678	
0.0251342	
0.0180935	
0.00847216	
-0.00154369	
-0.00839072	
-0.0132272	
-0.0215822	
-0.0354733	
-0.0499621	
-0.0597601	
-0.0654521	
-0.0703303	
-0.0747065	
-0.0770577	
-0.0779742	
-0.0789675	
-0.0792894	
-0.0777654	
-0.0760753	
-0.0756743	
-0.0725866	
-0.06191	
-0.0489723	
-0.0458568	
-0.0454442	
-0.00484041	
0.120532	
0.307656	
0.442846	
0.400911	
0.166244	
-0.133908	
-0.330422	
-0.346765	
-0.236401	
-0.108636	
-0.036453	
-0.0252335	
-0.0401894	
-0.048122	
-0.0408229	
-0.0314058	
-0.0337966	
-0.04732	
-0.0601884	
-0.0628178	
-0.0541114	
-0.0386819	
-0.023491	
-0.0156124	
-0.0177541	
-0.024698	
-0.0266559	
-0.0174209	
0.00045233	
0.0174574	
0.0245057	
0.0207689	
0.0146472	
0.0155842	
0.0255386	
0.0399765	
0.0549843	
0.0694152	
0.0810272	
0.086268	
0.0867324	
0.0915859	
0.107595	
0.127054	
0.132141	
0.114733	
0.0868532	
0.0656965	
0.0516499	
0.0294012	
-0.008862	
-0.0500944	
-0.075036	
-0.0804037	
-0.0795678	
-0.0840364	
-0.0926441	
-0.0999701	
-0.106962	
-0.117258	
-0.127661	
-0.130392	
-0.125036	
-0.121216	
-0.126236	
-0.13535	
-0.139056	
-0.136326	
-0.134694	
-0.138847	
-0.144838	
-0.14577	
-0.139032	
-0.127454	
-0.116513	
-0.110956	
-0.111659	
-0.115266	
-0.118495	
-0.122238	
-0.128912	
-0.136374	
-0.138631	
-0.133581	
-0.125728	
-0.119119	
-0.112277	
-0.103709	
-0.0981369	
-0.10162	
-0.111994	
-0.11879	
-0.113132	
-0.0960651	
-0.0781714	
-0.0720596	
-0.0824768	
-0.100657	
-0.109763	
-0.0995052	
-0.0762157	
-0.0568636	
-0.0526475	
-0.0594612	
-0.0644528	
-0.0600316	
-0.0496247	
-0.0404766	
-0.0341874	
-0.0266472	
-0.0156032	
-0.0050641	
-0.00166474	
-0.00796302	
-0.0193228	
-0.0267443	
-0.0235822	
-0.0109487	
0.00286203	
0.00847601	
0.00217357	
-0.0117719	
-0.0253194	
-0.0339458	
-0.0388676	
-0.0417622	
-0.0410818	
-0.0365592	
-0.03318	
-0.0352828	
-0.0394975	
-0.0395126	
-0.0358631	
-0.0346081	
-0.0375811	
-0.0412555	
-0.0453676	
-0.0526327	
-0.0517371	
-0.00606205	
0.121496	
0.3135	
0.470297	
0.466458	
0.263275	
-0.036325	
-0.263831	
-0.320873	
-0.236354	
-0.107204	
-0.0111104	
0.0266704	
0.0191342	
-0.00442379	
-0.0177653	
-0.0140988	
-0.00549392	
-0.00372248	
-0.00643779	
-0.00395096	
0.00722545	
0.0215258	
0.0308772	
0.0314002	
0.0261231	
0.0221589	
0.0237784	
0.0292701	
0.0358981	
0.0444628	
0.0556621	
0.0657256	
0.0708374	
0.0735565	
0.0794281	
0.0884445	
0.0954996	
0.0995789	
0.106851	
0.121804	
0.138892	
0.147144	
0.14259	
0.133097	
0.129572	
0.13357	
0.135277	
0.123857	
0.0977954	
0.0637549	
0.0281434	
-0.00585861	
-0.0342647	
-0.0516755	
-0.0573524	
-0.058183	
-0.0624259	
-0.0718348	
-0.0818229	
-0.088498	
-0.0933154	
-0.0992128	
-0.10303	
-0.096334	
-0.0778657	
-0.0616797	
-0.0644251	
-0.0834781	
-0.0969403	
-0.0902742	
-0.0742058	
-0.067598	
-0.0701575	
-0.0658735	
-0.051417	
-0.045162	
-0.0618025	
-0.0893637	
-0.101683	
-0.0888391	
-0.0659657	
-0.0536453	
-0.0581527	
-0.0719053	
-0.0849562	
-0.0908755	
-0.0863823	
-0.0727779	
-0.058057	
-0.051903	
-0.0556341	
-0.0602379	
-0.0574281	
-0.0498787	
-0.0462643	
-0.0483822	
-0.0492262	
-0.0437939	
-0.0357103	
-0.0312539	
-0.0317125	
-0.0344618	
-0.0378805	
-0.0413818	
-0.0423097	
-0.0372181	
-0.0275547	
-0.0208961	
-0.0229557	
-0.0293666	
-0.0300318	
-0.0226943	
-0.0169681	
-0.0212596	
-0.0304421	
-0.0328724	
-0.0269915	
-0.0230987	
-0.0284768	
-0.0383622	
-0.0441164	
-0.0443987	
-0.0449	
-0.05056	
-0.0599682	
-0.0650404	
-0.0569686	
-0.0365897	
-0.017479	
-0.0129315	
-0.0208149	
-0.0286878	
-0.0327174	
-0.0375296	
-0.0296368	
0.0327011	
0.175689	
0.349566	
0.436191	
0.344762	
0.103475	
-0.155972	
-0.306465	
-0.31259	
-0.224122	
-0.113887	
-0.0328424	
-0.000699692	
-0.00960391	
-0.0331673	
-0.0466272	
-0.0454093	
-0.0416626	
-0.0445496	
-0.0498777	
-0.0483932	
-0.0378016	
-0.0244636	
-0.0167287	
-0.0181915	
-0.0251872	
-0.0298229	
-0.0270817	
-0.0191996	
-0.0118302	
-0.00727013	
-0.00381978	
0.000304475	
0.00617853	
0.015077	
0.0254678	
0.0313701	
0.0297875	
0.0285106	
0.0395656	
0.0638653	
0.0874916	
0.0947594	
0.0822403	
0.060607	
0.0460784	
0.0483387	
0.061351	
0.0655863	
0.0440588	
-0.00187478	
-0.0542061	
-0.0947161	
-0.117243	
-0.126287	
-0.129615	
-0.133275	
-0.139221	
-0.145101	
-0.147725	
-0.147058	
-0.145246	
-0.142866	
-0.139279	
-0.135854	
-0.134894	
-0.135652	
-0.135522	
-0.134718	
-0.134931	
-0.133873	
-0.127282	
-0.116896	
-0.110285	
-0.111289	
-0.115697	
-0.117491	
-0.114629	
-0.108085	
-0.100224	
-0.0951314	
-0.0958665	
-0.0996912	
-0.0999541	
-0.0946654	
-0.0899952	
-0.0929258	
-0.102791	
-0.112617	
-0.117378	
-0.118556	
-0.121022	
-0.126786	
-0.131599	
-0.127905	
-0.113264	
-0.0961393	
-0.0899188	
-0.0988858	
-0.11243	
-0.115454	
-0.102468	
-0.0798751	
-0.0585188	
-0.0482154	
-0.0553605	
-0.0774994	
-0.0994815	
-0.102585	
-0.0824556	
-0.0552475	
-0.0422237	
-0.0494665	
-0.0653472	
-0.075897	
-0.0776845	
-0.0753145	
-0.0724251	
-0.0694785	
-0.0669375	
-0.0655495	
-0.0647682	
-0.0646403	
-0.0675549	
-0.0738314	
-0.0770695	
-0.0695633	
-0.0531973	
-0.0400309	
-0.039891	
-0.0504148	
-0.0583453	
-0.0422599	
0.0262485	
0.163551	
0.33399	
0.437715	
0.374541	
0.142427	
-0.138717	
-0.319039	
-0.335015	
-0.235607	
-0.11501	
-0.0389469	
-0.0222971	
-0.0443962	
-0.0722844	
-0.082362	
-0.0726865	
-0.0553787	
-0.0386704	
-0.0217813	
-0.0049763	
0.00551316	
0.00598683	
0.00202699	
0.00223802	
0.0088994	
0.0186838	
0.0297275	
0.0429123	
0.0564755	
0.0643537	
0.0628334	
0.0569585	
0.0574227	
0.0706408	
0.0926767	
0.112709	
0.122077	
0.121085	
0.118444	
0.12372	
0.139085	
0.158013	
0.17174	
0.175866	
0.170687	
0.157393	
0.135936	
0.106665	
0.0731746	
0.0420525	
0.0176184	
-0.00300622	
-0.0262849	
-0.0526353	
-0.0741945	
-0.0843444	
-0.0857591	
-0.0860391	
-0.0884964	
-0.0906382	
-0.0896159	
-0.08595	
-0.0827328	
-0.0827104	
-0.0851392	
-0.0855593	
-0.0811917	
-0.0759906	
-0.0759091	
-0.0790708	
-0.076805	
-0.0666531	
-0.0581292	
-0.0612286	
-0.0737178	
-0.0847265	
-0.0879936	
-0.0865138	
-0.0853407	
-0.0848407	
-0.0823022	
-0.0769173	
-0.0706418	
-0.0651647	
-0.0602525	
-0.0555507	
-0.0528387	
-0.0549545	
-0.0611386	
-0.0639801	
-0.0547887	
-0.0353531	
-0.0214141	
-0.0277582	
-0.0491984	
-0.0634003	
-0.0564704	
-0.0398858	
-0.0357676	
-0.0492492	
-0.0634414	
-0.0609043	
-0.0425018	
-0.0239399	
-0.0199897	
-0.0334714	
-0.0538145	
-0.0646573	
-0.0581373	
-0.043404	
-0.0365416	
-0.0421776	
-0.0515782	
-0.0588117	
-0.0686923	
-0.084542	
-0.0980983	
-0.100263	
-0.0954297	
-0.0952591	
-0.101668	
-0.106058	
-0.104418	
-0.102952	
-0.106202	
-0.108211	
-0.100723	
-0.0853582	
-0.0732853	
-0.0753286	
-0.0907635	
-0.0953165	
-0.0407554	
0.107417	
0.307149	
0.429467	
0.35281	
0.0866785	
-0.216099	
-0.386191	
-0.371627	
-0.248317	
-0.126209	
-0.0651006	
-0.06179	
-0.0815202	
-0.0914538	
-0.0816029	
-0.0665837	
-0.0648864	
-0.0759815	
-0.0832756	
-0.077063	
-0.0642502	
-0.0544968	
-0.0476609	
-0.0400402	
-0.0346299	
-0.0371799	
-0.0456663	
-0.0507154	
-0.045748	
-0.0320315	
-0.0148828	
-5.69318E-005	
0.00655876	
0.00205924	
-0.00801805	
-0.011821	
-0.00240719	
0.0157166	
0.0338202	
0.0487876	
0.061262	
0.0681646	
0.0654303	
0.0578516	
0.0568911	
0.0642771	
0.0642732	
0.0395008	
-0.00723011	
-0.0533738	
-0.0805766	
-0.0929876	
-0.107232	
-0.128074	
-0.142868	
-0.141439	
-0.132136	
-0.131442	
-0.142937	
-0.154406	
-0.154245	
-0.144143	
-0.13446	
-0.131429	
-0.131821	
-0.129046	
-0.121254	
-0.111375	
-0.101638	
-0.0930442	
-0.0895984	
-0.095787	
-0.107497	
-0.11289	
-0.106875	
-0.0979217	
-0.0953077	
-0.0970511	
-0.0976134	
-0.0998385	
-0.108467	
-0.11631	
-0.109239	
-0.0853466	
-0.0593862	
-0.0458632	
-0.0452228	
-0.0492678	
-0.0528815	
-0.0555802	
-0.0567093	
-0.0555128	
-0.0545464	
-0.0581204	
-0.0664585	
-0.07358	
-0.0720541	
-0.0598633	
-0.0428022	
-0.0299591	
-0.0260473	
-0.0277176	
-0.0275035	
-0.0216682	
-0.014281	
-0.0130082	
-0.0203132	
-0.0298335	
-0.0331068	
-0.029271	
-0.0259232	
-0.0305164	
-0.0432328	
-0.0583166	
-0.0692128	
-0.0711395	
-0.062172	
-0.0456054	
-0.0301762	
-0.0239345	
-0.0261085	
-0.0263873	
-0.014184	
0.0103378	
0.0344956	
0.0431195	
0.0312402	
0.00991902	
0.00651494	
0.0600229	
0.197298	
0.388351	
0.528394	
0.501159	
0.288181	
0.00530285	
-0.190218	
-0.227779	
-0.153928	
-0.0566579	
0.012414	
0.0478155	
0.0603859	
0.0600473	
0.0562643	
0.0561715	
0.0594373	
0.0615019	
0.0623176	
0.0669097	
0.0762472	
0.0826774	
0.0789586	
0.0696306	
0.0675832	
0.078599	
0.0944708	
0.103224	
0.10105	
0.0916056	
0.0796777	
0.0709615	
0.0731539	
0.0889279	
0.108841	
0.119086	
0.118055	
0.119183	
0.134303	
0.158301	
0.173539	
0.167587	
0.144603	
0.120205	
0.106124	
0.0998909	
0.089817	
0.0689089	
0.0408331	
0.0125014	
-0.0140772	
-0.039951	
-0.0632174	
-0.0790036	
-0.0847904	
-0.0840684	
-0.0850077	
-0.0947041	
-0.112335	
-0.128325	
-0.133033	
-0.126135	
-0.115368	
-0.107904	
-0.106624	
-0.112476	
-0.124039	
-0.134654	
-0.136419	
-0.129389	
-0.122038	
-0.12026	
-0.120375	
-0.116418	
-0.110018	
-0.107397	
-0.10842	
-0.105462	
-0.095027	
-0.0853776	
-0.0883126	
-0.105	
-0.123376	
-0.129901	
-0.12218	
-0.109674	
-0.103475	
-0.106874	
-0.115422	
-0.12316	
-0.126207	
-0.122306	
-0.112143	
-0.102265	
-0.101177	
-0.108375	
-0.111475	
-0.100492	
-0.0826112	
-0.0750026	
-0.0828703	
-0.0929158	
-0.0914331	
-0.081339	
-0.0759383	
-0.0812673	
-0.0909909	
-0.0957819	
-0.092186	
-0.0844035	
-0.0821374	
-0.0938865	
-0.116537	
-0.133888	
-0.132365	
-0.117393	
-0.107541	
-0.112257	
-0.121831	
-0.120931	
-0.106653	
-0.0901477	
-0.0833034	
-0.0873914	
-0.0952413	
-0.100629	
-0.0968177	
-0.0616955	
0.0398813	
0.21058	
0.372304	
0.397548	
0.224832	
-0.0616183	
-0.293973	
-0.365368	
-0.298881	
-0.186845	
-0.0991185	
-0.0565013	
-0.0533247	
-0.0723391	
-0.0885908	
-0.0853531	
-0.0692944	
-0.0586131	
-0.0577017	
-0.054126	
-0.0398468	
-0.0238885	
-0.0194876	
-0.0260458	
-0.0307811	
-0.0259342	
-0.0175788	
-0.0153822	
-0.0184324	
-0.0164867	
-0.0042384	
0.0116774	
0.0222955	
0.0278921	
0.0349464	
0.0447753	
0.0522794	
0.0558472	
0.0610273	
0.0714207	
0.0819697	
0.0856203	
0.0822264	
0.0763883	
0.070097	
0.0619351	
0.050606	
0.0351295	
0.0141379	
-0.0110222	
-0.0344438	
-0.0508637	
-0.0619796	
-0.0745003	
-0.0918767	
-0.110171	
-0.122405	
-0.125029	
-0.119486	
-0.110035	
-0.102374	
-0.102207	
-0.110616	
-0.120326	
-0.120286	
-0.1062	
-0.0854737	
-0.0712385	
-0.0719669	
-0.0851764	
-0.0989278	
-0.101034	
-0.0899358	
-0.075739	
-0.0688345	
-0.0704291	
-0.0763453	
-0.0840513	
-0.0901265	
-0.087156	
-0.0730586	
-0.0601134	
-0.0634346	
-0.0805261	
-0.0926821	
-0.0885332	
-0.0767477	
-0.0719786	
-0.0766291	
-0.0819254	
-0.0809105	
-0.0740907	
-0.0656802	
-0.0600732	
-0.060531	
-0.0662708	
-0.0706732	
-0.0664818	
-0.0546042	
-0.0451401	
-0.0466944	
-0.0556689	
-0.0598834	
-0.053388	
-0.0434407	
-0.0404168	
-0.0447397	
-0.0479403	
-0.0443752	
-0.0375003	
-0.0351123	
-0.0415892	
-0.0546475	
-0.0673363	
-0.073543	
-0.0736208	
-0.0739035	
-0.0782287	
-0.0810345	
-0.0729295	
-0.0535433	
-0.0344738	
-0.027562	
-0.0337096	
-0.045199	
-0.0554414	
-0.0635443	
-0.0705916	
-0.0702333	
-0.0388239	
0.0577485	
0.22485	
0.395136	
0.446686	
0.301547	
0.0150436	
-0.253188	
-0.370283	
-0.328273	
-0.218316	
-0.132636	
-0.102483	
-0.108836	
-0.123138	
-0.132338	
-0.139019	
-0.148271	
-0.156571	
-0.154681	
-0.141066	
-0.126637	
-0.121808	
-0.123403	
-0.120647	
-0.111123	
-0.102888	
-0.100854	
-0.0991201	
-0.0903874	
-0.0772547	
-0.0685419	
-0.0671357	
-0.067538	
-0.0650458	
-0.0608694	
-0.0557048	
-0.0442381	
-0.0221006	
0.00432229	
0.0218591	
0.024795	
0.0192784	
0.0120705	
0.0017041	
-0.0146635	
-0.0318584	
-0.0426571	
-0.0510062	
-0.0700455	
-0.104625	
-0.142761	
-0.169135	
-0.183013	
-0.19704	
-0.219523	
-0.244308	
-0.260364	
-0.266291	
-0.270849	
-0.281897	
-0.29894	
-0.314478	
-0.319437	
-0.310287	
-0.294516	
-0.285766	
-0.289593	
-0.297303	
-0.297447	
-0.289107	
-0.279469	
-0.273293	
-0.27099	
-0.273004	
-0.278079	
-0.278666	
-0.266194	
-0.242774	
-0.222118	
-0.215887	
-0.221918	
-0.228016	
-0.225349	
-0.216121	
-0.209316	
-0.210996	
-0.218537	
-0.222802	
-0.216205	
-0.20034	
-0.185666	
-0.181795	
-0.187996	
-0.194883	
-0.194902	
-0.188872	
-0.182694	
-0.180412	
-0.180651	
-0.177922	
-0.168005	
-0.153909	
-0.144976	
-0.146853	
-0.153366	
-0.152128	
-0.138442	
-0.12039	
-0.109546	
-0.109603	
-0.115424	
-0.120937	
-0.125306	
-0.131215	
-0.139	
-0.144747	
-0.144589	
-0.138981	
-0.131787	
-0.126905	
-0.126297	
-0.128522	
-0.128149	
-0.12006	
-0.106616	
-0.098015	
-0.102262	
-0.112713	
-0.103356	
-0.0396024	
0.0916082	
0.248253	
0.336798	
0.275215	
0.0702028	
-0.172892	
-0.328526	
-0.343596	
-0.258487	
-0.15309	
-0.0837375	
-0.0621835	
-0.0718031	
-0.0907116	
-0.104432	
-0.10795	
-0.101989	
-0.0886214	
-0.0708978	
-0.0554494	
-0.0502514	
-0.0552362	
-0.0581221	
-0.046663	
-0.0250843	
-0.0110031	
-0.0139646	
-0.0243599	
-0.0278263	
-0.0235101	
-0.0204472	
-0.020274	
-0.013871	
0.00371151	
0.0236789	
0.0336185	
0.0325474	
0.0313281	
0.0404645	
0.0605538	
0.0825123	
0.0943817	
0.0899437	
0.073594	
0.0557422	
0.0419449	
0.0286406	
0.010811	
-0.0101746	
-0.0297882	
-0.0475949	
-0.0659945	
-0.0839338	
-0.0975184	
-0.105969	
-0.111727	
-0.114949	
-0.113233	
-0.107977	
-0.106534	
-0.114834	
-0.129161	
-0.13806	
-0.1338	
-0.121237	
-0.113129	
-0.115917	
-0.122968	
-0.124346	
-0.119728	
-0.115931	
-0.114214	
-0.109249	
-0.101828	
-0.101962	
-0.11351	
-0.124453	
-0.121219	
-0.107441	
-0.0995405	
-0.105972	
-0.118702	
-0.124727	
-0.119397	
-0.107487	
-0.0965461	
-0.0914626	
-0.0920802	
-0.093376	
-0.0893759	
-0.0789268	
-0.0677062	
-0.064043	
-0.0719407	
-0.0866478	
-0.0972732	
-0.0965486	
-0.0885986	
-0.083866	
-0.0860741	
-0.0889053	
-0.0862089	
-0.0788845	
-0.0695279	
-0.0583874	
-0.0494009	
-0.0518042	
-0.0676127	
-0.0837474	
-0.0861728	
-0.0780607	
-0.0747778	
-0.0839406	
-0.100091	
-0.117046	
-0.134527	
-0.15105	
-0.159479	
-0.154032	
-0.137281	
-0.117768	
-0.103489	
-0.0982773	
-0.101089	
-0.107237	
-0.111382	
-0.109589	
-0.100319	
-0.0885602	
-0.0869877	
-0.0981294	
-0.0878236	
0.00194271	
0.18269	
0.36417	
0.40556	
0.245924	
-0.0270856	
-0.252649	
-0.332147	
-0.28327	
-0.184535	
-0.0989324	
-0.0497447	
-0.036151	
-0.0470609	
-0.065286	
-0.0753181	
-0.0735587	
-0.0683755	
-0.068618	
-0.0732041	
-0.0726983	
-0.0605377	
-0.0414302	
-0.0276651	
-0.0271808	
-0.0358617	
-0.0417514	
-0.0367032	
-0.0237449	
-0.0130141	
-0.0113127	
-0.0166865	
-0.02209	
-0.0215841	
-0.0129096	
0.00244819	
0.0198195	
0.0343105	
0.0450263	
0.0544764	
0.0628878	
0.0665063	
0.0634409	
0.0570782	
0.0505015	
0.0415621	
0.0271962	
0.00838795	
-0.0129671	
-0.0367963	
-0.0597529	
-0.0739356	
-0.0778853	
-0.0831552	
-0.100584	
-0.123251	
-0.13326	
-0.125357	
-0.114285	
-0.115971	
-0.129124	
-0.140214	
-0.141247	
-0.136447	
-0.133403	
-0.133463	
-0.132234	
-0.126357	
-0.117112	
-0.10773	
-0.0994983	
-0.0921833	
-0.0871382	
-0.0869876	
-0.0913683	
-0.0957061	
-0.0966213	
-0.0966996	
-0.100369	
-0.105769	
-0.10529	
-0.0953804	
-0.081758	
-0.0728821	
-0.0716587	
-0.0751441	
-0.0784317	
-0.0769859	
-0.0698332	
-0.0632352	
-0.06639	
-0.0795177	
-0.0906395	
-0.0895233	
-0.0811631	
-0.0783309	
-0.082773	
-0.082987	
-0.0723111	
-0.0597084	
-0.0565561	
-0.0599183	
-0.0578599	
-0.0476462	
-0.0387376	
-0.0380981	
-0.0421199	
-0.0451253	
-0.0466959	
-0.0462423	
-0.0388299	
-0.0239018	
-0.0127311	
-0.0181421	
-0.0373078	
-0.0513412	
-0.0443441	
-0.0206493	
-0.00201926	
-0.00815254	
-0.0390591	
-0.074628	
-0.0910123	
-0.0796474	
-0.0533439	
-0.0346449	
-0.0363812	
-0.0519682	
-0.0647834	
-0.0664419	
-0.0634853	
-0.065555	
-0.0712647	
-0.0711401	
-0.0629473	
-0.0535916	
-0.0372886	
0.0198545	
0.150238	
0.325396	
0.440611	
0.389351	
0.167384	
-0.107527	
-0.290131	
-0.318972	
-0.237991	
-0.132369	
-0.0612609	
-0.0382858	
-0.0467519	
-0.0623438	
-0.0708355	
-0.0726701	
-0.0726523	
-0.0697507	
-0.0609076	
-0.0495747	
-0.0425951	
-0.0401102	
-0.0356054	
-0.0263266	
-0.0174608	
-0.0138211	
-0.0120831	
-0.00513588	
0.00775525	
0.0191052	
0.0225081	
0.0211637	
0.0240858	
0.0343924	
0.0456688	
0.0518614	
0.0562386	
0.0658217	
0.080005	
0.0913742	
0.0973567	
0.103819	
0.11428	
0.121394	
0.11452	
0.0929627	
0.0661617	
0.0414219	
0.016571	
-0.0139029	
-0.0490591	
-0.0802901	
-0.0991147	
-0.105541	
-0.108877	
-0.118926	
-0.134661	
-0.143123	
-0.132966	
-0.109006	
-0.0892107	
-0.0855823	
-0.0918256	
-0.0927353	
-0.0820133	
-0.0661118	
-0.0530962	
-0.0445082	
-0.0389817	
-0.0374821	
-0.0409251	
-0.0462083	
-0.0490748	
-0.0490185	
-0.0473977	
-0.0427888	
-0.0333991	
-0.0231456	
-0.0193225	
-0.0227638	
-0.0250672	
-0.0187234	
-0.00770989	
-0.00446756	
-0.0156702	
-0.0333969	
-0.0431528	
-0.0399945	
-0.033023	
-0.032973	
-0.0395884	
-0.0442499	
-0.0417416	
-0.0348806	
-0.0285824	
-0.0239317	
-0.0196219	
-0.0167645	
-0.0196098	
-0.0305741	
-0.0448589	
-0.0520338	
-0.0459172	
-0.032712	
-0.0252214	
-0.0274002	
-0.0292004	
-0.0200724	
-0.00307071	
0.00980418	
0.0129621	
0.0111149	
0.0093618	
0.00720417	
0.00394687	
0.00316573	
0.00760023	
0.013106	
0.0115322	
-0.0010343	
-0.0197405	
-0.033867	
-0.0356013	
-0.0284791	
-0.0256272	
-0.0362148	
-0.0546276	
-0.0664199	
-0.0641378	
-0.0537457	
-0.0459607	
-0.0454396	
-0.0495396	
-0.0534711	
-0.0534229	
-0.0481734	
-0.042574	
-0.0443126	
-0.0445941	
-0.00314757	
0.122704	
0.31114	
0.449612	
0.412215	
0.182729	
-0.112414	
-0.308599	
-0.335639	
-0.245696	
-0.13468	
-0.0612385	
-0.0318703	
-0.0289739	
-0.0342928	
-0.0364974	
-0.0331866	
-0.0289492	
-0.0278148	
-0.0279469	
-0.0256651	
-0.0218043	
-0.0196364	
-0.0179989	
-0.0124569	
-0.00422203	
-0.0015406	
-0.00804901	
-0.0142733	
-0.00688733	
0.0148769	
0.0376579	
0.049243	
0.0505718	
0.0508464	
0.0551323	
0.0607443	
0.0642698	
0.0679122	
0.0768663	
0.0915128	
0.104792	
0.109005	
0.104016	
0.0964068	
0.0911683	
0.086974	
0.0789714	
0.0625814	
0.0348917	
-0.00241628	
-0.0396615	
-0.0639389	
-0.0716769	
-0.0735714	
-0.0829346	
-0.10127	
-0.118977	
-0.127317	
-0.1244	
-0.111838	
-0.0930664	
-0.0759691	
-0.0702826	
-0.0781535	
-0.0903229	
-0.0949978	
-0.0889634	
-0.078169	
-0.0698755	
-0.0668214	
-0.0669331	
-0.0658222	
-0.061032	
-0.0558626	
-0.0566462	
-0.063887	
-0.0689933	
-0.0633212	
-0.0488726	
-0.0367843	
-0.0356041	
-0.04331	
-0.0511207	
-0.0534256	
-0.0521525	
-0.0513614	
-0.0504088	
-0.0457507	
-0.0383661	
-0.0344616	
-0.0370807	
-0.0412246	
-0.0406681	
-0.0364259	
-0.0338539	
-0.0333045	
-0.0292972	
-0.0192965	
-0.00834081	
-0.00298427	
-0.00379496	
-0.00603529	
-0.0060977	
-0.0052394	
-0.00704089	
-0.0121791	
-0.0166271	
-0.0158061	
-0.0102645	
-0.00566336	
-0.00630733	
-0.0105384	
-0.0144762	
-0.0179666	
-0.0222675	
-0.0229615	
-0.0126076	
0.00633049	
0.0175606	
0.00654487	
-0.0221694	
-0.0486786	
-0.0582881	
-0.0540826	
-0.0489852	
-0.0503088	
-0.0554193	
-0.0599375	
-0.0645057	
-0.0712064	
-0.0771086	
-0.0765646	
-0.0696579	
-0.0631926	
-0.0617582	
-0.0633572	
-0.0658628	
-0.0667274	
-0.0455485	
0.0398516	
0.208444	
0.395804	
0.467853	
0.332258	
0.0410669	
-0.238123	
-0.361947	
-0.316402	
-0.193267	
-0.0909236	
-0.0476438	
-0.045965	
-0.0521876	
-0.0477444	
-0.0355499	
-0.0264864	
-0.0248425	
-0.0281038	
-0.0347576	
-0.0441543	
-0.0505723	
-0.0464113	
-0.0330291	
-0.0216516	
-0.0205722	
-0.0261391	
-0.0293243	
-0.02718	
-0.0237628	
-0.0220377	
-0.019451	
-0.0114884	
0.00378345	
0.0249966	
0.0476665	
0.0641316	
0.0680554	
0.0628455	
0.061941	
0.0749742	
0.0953206	
0.10722	
0.104087	
0.0931485	
0.0823727	
0.0706992	
0.0534097	
0.0302784	
0.00438222	
-0.0222908	
-0.047535	
-0.066845	
-0.0782709	
-0.0879055	
-0.104253	
-0.125891	
-0.140609	
-0.140273	
-0.131704	
-0.127669	
-0.130873	
-0.13351	
-0.130321	
-0.123993	
-0.117608	
-0.110473	
-0.104377	
-0.105938	
-0.11693	
-0.12821	
-0.131007	
-0.131071	
-0.142187	
-0.164374	
-0.177924	
-0.166299	
-0.139512	
-0.124062	
-0.129968	
-0.139648	
-0.134493	
-0.121522	
-0.123397	
-0.148245	
-0.181129	
-0.203903	
-0.213126	
-0.216476	
-0.21958	
-0.221247	
-0.218527	
-0.212527	
-0.208701	
-0.211435	
-0.218151	
-0.220486	
-0.213344	
-0.201704	
-0.195702	
-0.198879	
-0.203857	
-0.201053	
-0.189874	
-0.178306	
-0.171481	
-0.165035	
-0.152955	
-0.138164	
-0.12918	
-0.127512	
-0.125255	
-0.116363	
-0.104401	
-0.0964609	
-0.0938673	
-0.0924448	
-0.0896632	
-0.0883967	
-0.0938971	
-0.107869	
-0.124779	
-0.134664	
-0.132278	
-0.123703	
-0.120879	
-0.128681	
-0.140272	
-0.146144	
-0.144439	
-0.140402	
-0.138344	
-0.137248	
-0.134182	
-0.130643	
-0.133923	
-0.147558	
-0.153961	
-0.109051	
0.0266378	
0.229726	
0.389966	
0.376137	
0.154254	
-0.161534	
-0.393115	
-0.440045	
-0.339426	
-0.202404	
-0.113181	
-0.0864522	
-0.0928803	
-0.101496	
-0.100344	
-0.0934914	
-0.0885274	
-0.0866711	
-0.0816818	
-0.0670765	
-0.0448857	
-0.0269365	
-0.0245924	
-0.0352747	
-0.0421207	
-0.0307371	
-0.00453741	
0.0200954	
0.0319701	
0.034401	
0.0379467	
0.0487513	
0.0650621	
0.0821152	
0.0977113	
0.112548	
0.126647	
0.137964	
0.145128	
0.149466	
0.153287	
0.158132	
0.165459	
0.176433	
0.189374	
0.198933	
0.198472	
0.18244	
0.149298	
0.106961	
0.0729512	
0.0607209	
0.0643652	
0.0641801	
0.0496357	
0.0299343	
0.0195011	
0.0211351	
0.0281665	
0.0354369	
0.0404949	
0.0394724	
0.0315606	
0.0257039	
0.0332519	
0.0529331	
0.0708258	
0.0764427	
0.0717119	
0.0635696	
0.0566314	
0.0554538	
0.0643761	
0.0795873	
0.0884503	
0.0832094	
0.0712829	
0.0665474	
0.0731821	
0.082804	
0.0857747	
0.0808941	
0.0741032	
0.0710716	
0.0725083	
0.0754264	
0.0768235	
0.0746926	
0.0670083	
0.0537536	
0.0403905	
0.0341331	
0.0342303	
0.0311064	
0.0192255	
0.00611879	
0.00312849	
0.0103678	
0.0170656	
0.0157779	
0.0103642	
0.00882246	
0.0131468	
0.0194642	
0.0250758	
0.0304413	
0.034672	
0.0345267	
0.0302277	
0.0277211	
0.0310111	
0.0354201	
0.0331685	
0.0231162	
0.010109	
-0.00226602	
-0.0118801	
-0.0140901	
-0.0063529	
0.00395327	
0.005531	
-0.00150211	
-0.00474375	
0.00277498	
0.0115722	
0.00825335	
-0.00615666	
-0.0187856	
-0.0238504	
-0.026049	
-0.016902	
0.0399291	
0.173998	
0.347656	
0.449174	
0.376172	
0.137213	
-0.139648	
-0.308825	
-0.31774	
-0.222776	
-0.11694	
-0.0564343	
-0.0446385	
-0.0578309	
-0.0717447	
-0.0737471	
-0.0657691	
-0.0595347	
-0.0642738	
-0.0773136	
-0.0883432	
-0.0913934	
-0.088806	
-0.0841065	
-0.0764969	
-0.0654743	
-0.0573207	
-0.0606982	
-0.0738589	
-0.0815833	
-0.0713663	
-0.0506226	
-0.0392252	
-0.0441085	
-0.0510072	
-0.0449183	
-0.0285547	
-0.014123	
-0.00620889	
-0.00161062	
0.00111315	
0.00183153	
0.00410946	
0.0112891	
0.0196139	
0.0216309	
0.013636	
-0.00505717	
-0.035284	
-0.0736858	
-0.108972	
-0.130162	
-0.138321	
-0.145683	
-0.162898	
-0.188778	
-0.212011	
-0.222725	
-0.222861	
-0.223058	
-0.227805	
-0.228632	
-0.217339	
-0.201346	
-0.196704	
-0.207263	
-0.22132	
-0.230348	
-0.239207	
-0.251946	
-0.258754	
-0.248267	
-0.227025	
-0.215047	
-0.223133	
-0.242844	
-0.25809	
-0.259274	
-0.246779	
-0.228674	
-0.216564	
-0.216782	
-0.222979	
-0.222961	
-0.214983	
-0.210496	
-0.217043	
-0.226004	
-0.224112	
-0.211365	
-0.199058	
-0.193347	
-0.189492	
-0.181452	
-0.169242	
-0.155931	
-0.143815	
-0.135258	
-0.132353	
-0.133704	
-0.134851	
-0.133009	
-0.128575	
-0.121689	
-0.110815	
-0.0962261	
-0.0829097	
-0.0781609	
-0.0850429	
-0.0970153	
-0.100491	
-0.0869498	
-0.0637339	
-0.0489879	
-0.053311	
-0.0690444	
-0.0800199	
-0.0787675	
-0.0702193	
-0.0610321	
-0.0517623	
-0.041284	
-0.0338679	
-0.035322	
-0.0378132	
-0.00963297	
0.087611	
0.252355	
0.408736	
0.440852	
0.289718	
0.0218863	
-0.212393	
-0.298577	
-0.23689	
-0.113944	
-0.0158947	
0.0271615	
0.0340127	
0.0349063	
0.044164	
0.0571111	
0.0637072	
0.0619171	
0.0579811	
0.0569075	
0.057103	
0.0545669	
0.0488535	
0.0435663	
0.0429057	
0.0483389	
0.0568518	
0.0620157	
0.0590924	
0.0506668	
0.0453948	
0.0487772	
0.0565277	
0.0603365	
0.0593881	
0.0613892	
0.0708971	
0.0818845	
0.0861632	
0.0855681	
0.0892498	
0.0991632	
0.10455	
0.0935806	
0.0671972	
0.0391421	
0.0233398	
0.0207553	
0.016958	
-0.00516047	
-0.0468929	
-0.0901008	
-0.115896	
-0.124066	
-0.128592	
-0.136792	
-0.14142	
-0.134449	
-0.120491	
-0.111666	
-0.114274	
-0.125951	
-0.141995	
-0.157519	
-0.165319	
-0.159969	
-0.146032	
-0.136168	
-0.137562	
-0.143978	
-0.144625	
-0.137668	
-0.129973	
-0.125061	
-0.11825	
-0.106075	
-0.0945239	
-0.0922067	
-0.0980341	
-0.101646	
-0.0962868	
-0.0867901	
-0.0831603	
-0.0886528	
-0.0960195	
-0.095094	
-0.0833029	
-0.0680072	
-0.0577766	
-0.0525803	
-0.0454368	
-0.0333242	
-0.0217231	
-0.0164984	
-0.0156744	
-0.0124113	
-0.00316684	
0.0092281	
0.0175183	
0.0141292	
-0.00149437	
-0.0175414	
-0.0178531	
0.000567134	
0.0232144	
0.0358276	
0.0404425	
0.0465833	
0.0527206	
0.0489528	
0.0365049	
0.0297926	
0.0345513	
0.037054	
0.0239468	
0.00257387	
-0.0101437	
-0.0119608	
-0.0143744	
-0.0208459	
-0.0219924	
-0.0128256	
0.00539059	
0.0490431	
0.153245	
0.318434	
0.461437	
0.458085	
0.260765	
-0.035659	
-0.263902	
-0.321186	
-0.2335	
-0.101632	
-0.00893735	
0.0203649	
0.00527695	
-0.0225515	
-0.0384368	
-0.0338918	
-0.0166787	
-0.000670293	
0.00641261	
0.00618527	
0.00379782	
0.002587	
0.00382115	
0.00725412	
0.00971264	
0.0064993	
-0.00191799	
-0.0065783	
0.00152927	
0.0193962	
0.0330532	
0.0324652	
0.0218479	
0.013706	
0.016847	
0.0322283	
0.0546512	
0.0736681	
0.0781669	
0.0670288	
0.0520367	
0.0443248	
0.0421016	
0.0380561	
0.0324405	
0.0279846	
0.0160144	
-0.0178001	
-0.0712781	
-0.121083	
-0.146306	
-0.149404	
-0.148655	
-0.157021	
-0.175023	
-0.197916	
-0.219664	
-0.231387	
-0.225852	
-0.207076	
-0.18994	
-0.185706	
-0.190054	
-0.189112	
-0.176397	
-0.159674	
-0.150115	
-0.1492	
-0.150251	
-0.149577	
-0.149432	
-0.150332	
-0.148239	
-0.142201	
-0.137661	
-0.137222	
-0.134271	
-0.122448	
-0.107016	
-0.0997144	
-0.104728	
-0.115481	
-0.123157	
-0.123411	
-0.116906	
-0.108342	
-0.103817	
-0.104615	
-0.103869	
-0.0935452	
-0.0756695	
-0.0626924	
-0.0639703	
-0.0744504	
-0.0802287	
-0.073891	
-0.060957	
-0.0521578	
-0.0525158	
-0.0575192	
-0.0581394	
-0.050854	
-0.0432671	
-0.0462568	
-0.0595221	
-0.0703392	
-0.0691783	
-0.0605528	
-0.0548518	
-0.0563213	
-0.0641594	
-0.0775872	
-0.0914762	
-0.0935048	
-0.0769751	
-0.0540751	
-0.0456346	
-0.057035	
-0.0732533	
-0.0798357	
-0.078431	
-0.0712077	
-0.034051	
0.0740772	
0.253891	
0.420166	
0.443285	
0.265449	
-0.0252947	
-0.257458	
-0.321191	
-0.245651	
-0.139325	
-0.0788611	
-0.0668332	
-0.0724964	
-0.079357	
-0.0893298	
-0.104212	
-0.119353	
-0.130156	
-0.135389	
-0.134918	
-0.128653	
-0.117252	
-0.102031	
-0.0859606	
-0.075628	
-0.0774617	
-0.0880924	
-0.092825	
-0.0805587	
-0.0585345	
-0.0446578	
-0.0448537	
-0.0466186	
-0.0383045	
-0.0256461	
-0.0208493	
-0.021612	
-0.0130255	
0.0104495	
0.0363696	
0.0505651	
0.0526119	
0.0503158	
0.0464823	
0.0384366	
0.0268451	
0.0169416	
0.00940133	
-0.00488193	
-0.0356452	
-0.078699	
-0.115576	
-0.131898	
-0.132983	
-0.134879	
-0.141671	
-0.141222	
-0.125886	
-0.107082	
-0.101255	
-0.107913	
-0.111581	
-0.1035	
-0.0922831	
-0.0914722	
-0.102585	
-0.114123	
-0.11549	
-0.108708	
-0.104626	
-0.108268	
-0.111278	
-0.101525	
-0.0788217	
-0.0577001	
-0.0533541	
-0.0664007	
-0.0831268	
-0.0902835	
-0.0875758	
-0.0847148	
-0.0883013	
-0.0945488	
-0.095103	
-0.0874529	
-0.0777248	
-0.0737798	
-0.0770113	
-0.0812799	
-0.0790616	
-0.068051	
-0.0525443	
-0.0398429	
-0.0351265	
-0.0374829	
-0.0401504	
-0.0375364	
-0.0333214	
-0.0370502	
-0.0492738	
-0.0559396	
-0.0448472	
-0.0238615	
-0.0136215	
-0.0229962	
-0.0406363	
-0.0522604	
-0.0577178	
-0.0656727	
-0.0769811	
-0.081869	
-0.0742343	
-0.0614657	
-0.0552062	
-0.0565816	
-0.0568871	
-0.0513318	
-0.0457131	
-0.0483523	
-0.0595253	
-0.0708935	
-0.0737608	
-0.0643142	
-0.0356802	
0.0334533	
0.163663	
0.327729	
0.428785	
0.364013	
0.131762	
-0.142467	
-0.308018	
-0.311689	
-0.213759	
-0.106531	
-0.0420551	
-0.0249054	
-0.0367437	
-0.0534837	
-0.0565176	
-0.0440827	
-0.0298494	
-0.0252916	
-0.0270711	
-0.0245716	
-0.0138788	
0.00109939	
0.0165597	
0.0301173	
0.0359869	
0.0279178	
0.0103759	
0.000400199	
0.0115092	
0.0372117	
0.0565304	
0.0571902	
0.0488786	
0.0510518	
0.0709871	
0.0975811	
0.115171	
0.118946	
0.115567	
0.112581	
0.111555	
0.110738	
0.109302	
0.106631	
0.100736	
0.0902931	
0.0764425	
0.0603814	
0.0406584	
0.0147832	
-0.0167723	
-0.0483753	
-0.0708131	
-0.0774664	
-0.0719359	
-0.067737	
-0.0758155	
-0.0925452	
-0.104395	
-0.104255	
-0.097828	
-0.0932951	
-0.091155	
-0.0873023	
-0.0806989	
-0.0736042	
-0.0675973	
-0.0633102	
-0.0616534	
-0.0617084	
-0.0592439	
-0.0511281	
-0.0404963	
-0.0338002	
-0.0324291	
-0.0312588	
-0.0272676	
-0.0254293	
-0.0319758	
-0.0442403	
-0.0520217	
-0.0484519	
-0.0358443	
-0.0217396	
-0.0131712	
-0.0138951	
-0.0222541	
-0.0309957	
-0.0330709	
-0.0283861	
-0.0218696	
-0.0156203	
-0.00742054	
0.0031964	
0.0125698	
0.0175818	
0.0186492	
0.0176371	
0.0168883	
0.0204545	
0.0313368	
0.0457995	
0.0542017	
0.0499746	
0.0361403	
0.0218759	
0.0143276	
0.0143426	
0.0177954	
0.0193872	
0.0164228	
0.0101475	
0.00311471	
-0.00372313	
-0.00917426	
-0.00872238	
0.00181888	
0.0186958	
0.0308056	
0.0304884	
0.0207345	
0.00893099	
-0.00271492	
-0.0119068	
0.00204861	
0.0794206	
0.239725	
0.428596	
0.523205	
0.424218	
0.157077	
-0.13108	
-0.289674	
-0.279489	
-0.173438	
-0.0664657	
-0.00347508	
0.0195225	
0.0193761	
0.00688205	
-0.0101002	
-0.0216496	
-0.0179686	
0.00371274	
0.0332728	
0.0519537	
0.0488251	
0.0332502	
0.0259303	
0.0372454	
0.0588068	
0.0755119	
0.0796361	
0.072578	
0.0602687	
0.0511302	
0.0539088	
0.07168	
0.0975268	
0.118504	
0.125437	
0.119851	
0.112387	
0.11468	
0.131318	
0.156764	
0.178363	
0.184424	
0.172879	
0.152417	
0.133696	
0.120065	
0.107552	
0.0910525	
0.067886	
0.038049	
0.00538832	
-0.0222263	
-0.038066	
-0.0429038	
-0.0439054	
-0.0464804	
-0.0492758	
-0.0485859	
-0.0463021	
-0.0503874	
-0.0651273	
-0.0823618	
-0.0874182	
-0.0759189	
-0.0600597	
-0.0542049	
-0.0585129	
-0.062265	
-0.0594999	
-0.0539994	
-0.0508299	
-0.0507448	
-0.0527586	
-0.0551709	
-0.0539006	
-0.0471756	
-0.042195	
-0.0479142	
-0.0591369	
-0.0590086	
-0.0434381	
-0.0319746	
-0.0435265	
-0.0689439	
-0.0813336	
-0.0708729	
-0.0553504	
-0.0537358	
-0.0620639	
-0.0636079	
-0.0544674	
-0.0469958	
-0.0496938	
-0.0554273	
-0.0528753	
-0.0409272	
-0.026572	
-0.0150235	
-0.00818249	
-0.00838009	
-0.0162773	
-0.0262851	
-0.03043	
-0.0276719	
-0.0246382	
-0.0257713	
-0.0274549	
-0.0246927	
-0.0194125	
-0.0174135	
-0.0194492	
-0.0213104	
-0.0231372	
-0.0324386	
-0.0535019	
-0.0768889	
-0.0854433	
-0.0719714	
-0.0476857	
-0.0317343	
-0.0343362	
-0.0505642	
-0.0675155	
-0.0751461	
-0.0718612	
-0.0637731	
-0.0594957	
-0.0585979	
-0.0368535	
0.0489218	
0.215282	
0.398208	
0.468827	
0.339534	
0.0607778	
-0.208075	
-0.332719	
-0.300946	
-0.195163	
-0.0988328	
-0.0431319	
-0.0208298	
-0.0186147	
-0.0277063	
-0.038363	
-0.0399378	
-0.030288	
-0.0198839	
-0.0204589	
-0.0298874	
-0.0339817	
-0.0248331	
-0.0111527	
-0.00587646	
-0.00844541	
-0.00679635	
0.0046	
0.0173938	
0.0227882	
0.0245168	
0.0318009	
0.0445276	
0.0542019	
0.057599	
0.0601695	
0.0652167	
0.068801	
0.0691039	
0.0735394	
0.0902151	
0.115301	
0.134064	
0.13413	
0.115618	
0.0897462	
0.069689	
0.0611694	
0.0586665	
0.0501298	
0.0271516	
-0.0077615	
-0.0431293	
-0.0676657	
-0.0781719	
-0.0792839	
-0.0771246	
-0.0751268	
-0.0754662	
-0.0807181	
-0.0911931	
-0.10178	
-0.104249	
-0.0943105	
-0.0767961	
-0.0631473	
-0.06202	
-0.0714153	
-0.0808244	
-0.0816244	
-0.0744539	
-0.0659191	
-0.0596798	
-0.0532888	
-0.0441776	
-0.035546	
-0.0329622	
-0.0366263	
-0.041395	
-0.0439419	
-0.0444576	
-0.0411923	
-0.031234	
-0.0200195	
-0.0213831	
-0.0402036	
-0.0608354	
-0.0628763	
-0.0460316	
-0.0292747	
-0.0257438	
-0.0290365	
-0.0270675	
-0.0197472	
-0.0164488	
-0.021418	
-0.0286638	
-0.0299919	
-0.023549	
-0.0143162	
-0.00874414	
-0.00964944	
-0.0156029	
-0.0240868	
-0.0329261	
-0.0380228	
-0.034106	
-0.0218994	
-0.0113541	
-0.0126328	
-0.0261718	
-0.0457247	
-0.0666674	
-0.0852828	
-0.0949565	
-0.091784	
-0.0814504	
-0.0729708	
-0.067699	
-0.061587	
-0.0562121	
-0.0593776	
-0.073397	
-0.088159	
-0.0894888	
-0.0744639	
-0.0549241	
-0.0372342	
0.0040125	
0.112786	
0.285752	
0.425987	
0.403668	
0.187567	
-0.10355	
-0.303246	
-0.339867	
-0.265133	
-0.168401	
-0.0983939	
-0.0600839	
-0.0454645	
-0.04643	
-0.0528968	
-0.0556785	
-0.0515761	
-0.0430533	
-0.035627	
-0.0347398	
-0.0402997	
-0.0449315	
-0.0418989	
-0.0329571	
-0.023815	
-0.0146216	
-0.00146765	
0.0139289	
0.0235107	
0.0239037	
0.0224986	
0.0285423	
0.0414602	
0.0527399	
0.0577238	
0.0600137	
0.0642189	
0.0706652	
0.0792932	
0.0922088	
0.107809	
0.117771	
0.116062	
0.107344	
0.100032	
0.0939506	
0.0819207	
0.0612155	
0.0352069	
0.00488256	
-0.0317	
-0.0702553	
-0.0996262	
-0.113862	
-0.118593	
-0.122553	
-0.128347	
-0.133933	
-0.137195	
-0.135529	
-0.126204	
-0.11204	
-0.103183	
-0.1078	
-0.122396	
-0.135738	
-0.141208	
-0.140876	
-0.13839	
-0.133646	
-0.126166	
-0.119409	
-0.118242	
-0.123248	
-0.130026	
-0.134501	
-0.13738	
-0.141722	
-0.14684	
-0.147884	
-0.142837	
-0.136552	
-0.134635	
-0.136039	
-0.135819	
-0.132796	
-0.129491	
-0.126771	
-0.124744	
-0.126895	
-0.135357	
-0.142793	
-0.137961	
-0.121079	
-0.105951	
-0.104269	
-0.113605	
-0.122635	
-0.12289	
-0.114064	
-0.102735	
-0.0972143	
-0.0999258	
-0.104691	
-0.105089	
-0.103907	
-0.108389	
-0.116463	
-0.115555	
-0.099256	
-0.0798879	
-0.0774748	
-0.0963542	
-0.118737	
-0.124841	
-0.115149	
-0.106713	
-0.109845	
-0.11733	
-0.118052	
-0.111928	
-0.106487	
-0.106186	
-0.111193	
-0.120713	
-0.130888	
-0.134369	
-0.128527	
-0.117628	
-0.0954064	
-0.0306146	
0.106325	
0.286036	
0.403675	
0.351788	
0.125656	
-0.155002	
-0.342443	
-0.376154	
-0.302501	
-0.20344	
-0.129979	
-0.0946054	
-0.0915106	
-0.105639	
-0.117049	
-0.114608	
-0.104667	
-0.10003	
-0.103375	
-0.106184	
-0.101374	
-0.0917586	
-0.0848566	
-0.0820164	
-0.0764858	
-0.0634644	
-0.0482823	
-0.0404873	
-0.0419655	
-0.0457991	
-0.0457201	
-0.0410379	
-0.0320318	
-0.0169594	
0.00307985	
0.0209484	
0.0299006	
0.0311877	
0.0314489	
0.0344138	
0.0391637	
0.0443308	
0.0480935	
0.0446558	
0.0277125	
-0.000531535	
-0.0293759	
-0.0514097	
-0.0698387	
-0.0917654	
-0.118943	
-0.148133	
-0.175939	
-0.198928	
-0.211763	
-0.210255	
-0.197297	
-0.183565	
-0.179821	
-0.187365	
-0.197526	
-0.201907	
-0.200743	
-0.198863	
-0.196901	
-0.191292	
-0.181304	
-0.171251	
-0.16551	
-0.164149	
-0.163795	
-0.161174	
-0.155453	
-0.147983	
-0.14069	
-0.135219	
-0.13266	
-0.132443	
-0.131732	
-0.127823	
-0.121547	
-0.116797	
-0.115938	
-0.1163	
-0.111938	
-0.0997134	
-0.0845744	
-0.07771	
-0.0863892	
-0.104873	
-0.118326	
-0.117213	
-0.1054	
-0.0934355	
-0.0880916	
-0.0903967	
-0.0983437	
-0.106111	
-0.104137	
-0.0871885	
-0.0627181	
-0.045863	
-0.0447597	
-0.054258	
-0.0640793	
-0.0682627	
-0.0657059	
-0.0573594	
-0.0465449	
-0.0384799	
-0.0356842	
-0.0349831	
-0.0309628	
-0.0219818	
-0.012413	
-0.00928387	
-0.0160392	
-0.0292205	
-0.0423085	
-0.0527243	
-0.0629953	
-0.0744419	
-0.0820041	
-0.0778554	
-0.0609932	
-0.0419219	
-0.034565	
-0.0415875	
-0.0506234	
-0.0488027	
-0.0383823	
-0.0327411	
-0.0394843	
-0.0536585	
-0.0614159	
-0.0369636	
0.0561009	
0.227978	
0.412077	
0.48062	
0.350395	
0.0764138	
-0.182276	
-0.297198	
-0.262389	
-0.162323	
-0.0786988	
-0.0396758	
-0.034077	
-0.0426108	
-0.0514239	
-0.0537145	
-0.0505975	
-0.0481984	
-0.049408	
-0.0494164	
-0.0415557	
-0.0267006	
-0.0141139	
-0.0116625	
-0.0172368	
-0.0223264	
-0.0222246	
-0.0185451	
-0.0126511	
-0.00245328	
0.0122371	
0.0255476	
0.030658	
0.0287175	
0.0306367	
0.0476867	
0.0780305	
0.103697	
0.105915	
0.0854323	
0.0635236	
0.0601799	
0.0748803	
0.0910036	
0.0943039	
0.0831228	
0.064571	
0.0462985	
0.0313303	
0.0173178	
-0.000533722	
-0.0258556	
-0.0595383	
-0.0982759	
-0.132348	
-0.148805	
-0.142839	
-0.125611	
-0.115499	
-0.119838	
-0.128573	
-0.127342	
-0.113347	
-0.0957372	
-0.0836874	
-0.0788951	
-0.078715	
-0.0810833	
-0.0841699	
-0.0847445	
-0.0803289	
-0.0720885	
-0.0633969	
-0.0561482	
-0.0503613	
-0.0465981	
-0.0459939	
-0.0476163	
-0.0481774	
-0.0453471	
-0.0403271	
-0.0370653	
-0.0392696	
-0.0467427	
-0.0537502	
-0.0531556	
-0.0437205	
-0.0313394	
-0.0220599	
-0.0168655	
-0.0145759	
-0.015282	
-0.0172832	
-0.0149186	
-0.00562383	
0.00285353	
-0.000505062	
-0.0150298	
-0.0270279	
-0.0258144	
-0.0155385	
-0.00767831	
-0.00652451	
-0.00687258	
-0.00343819	
0.00250028	
0.00619237	
0.00641816	
0.00802702	
0.0169972	
0.0325696	
0.0459588	
0.0493772	
0.044746	
0.0394137	
0.0347993	
0.026183	
0.0148354	
0.0121086	
0.0255309	
0.0451747	
0.0507428	
0.032428	
0.00113745	
-0.0223848	
-0.0260509	
-0.0136467	
0.00290062	
0.0142855	
0.0169141	
0.010545	
-0.00192885	
-0.0132511	
-0.0157449	
-0.00857369	
0.00224296	
0.012036	
0.0198656	
0.0206628	
0.00786873	
-0.00129025	
0.0468933	
0.196651	
0.40553	
0.535743	
0.461413	
0.196042	
-0.104168	
-0.274406	
-0.270618	
-0.169146	
-0.0683538	
-0.0132767	
0.0016619	
-0.00402171	
-0.015351	
-0.0213636	
-0.0158401	
-0.00119616	
0.0138503	
0.0227147	
0.026475	
0.0308315	
0.0378701	
0.0421143	
0.0370445	
0.0254871	
0.019429	
0.026448	
0.0393487	
0.0441726	
0.0378496	
0.0330577	
0.0438784	
0.069312	
0.0929064	
0.098151	
0.0841138	
0.0667835	
0.0647757	
0.0825838	
0.107788	
0.124617	
0.128236	
0.12448	
0.118923	
0.111085	
0.0986467	
0.0818947	
0.0618339	
0.0373517	
0.0071673	
-0.026488	
-0.0579702	
-0.0821605	
-0.0981301	
-0.109089	
-0.118698	
-0.12726	
-0.131629	
-0.128954	
-0.120367	
-0.110515	
-0.103503	
-0.100364	
-0.100788	
-0.104665	
-0.109556	
-0.109688	
-0.102294	
-0.0934365	
-0.0917122	
-0.0962219	
-0.0968039	
-0.0873426	
-0.0732844	
-0.0642946	
-0.0646588	
-0.0725305	
-0.0829528	
-0.0892961	
-0.0875436	
-0.0825783	
-0.0852117	
-0.0989824	
-0.113687	
-0.116102	
-0.104772	
-0.0904366	
-0.0830858	
-0.0824768	
-0.082173	
-0.0794152	
-0.0776376	
-0.0806044	
-0.088229	
-0.0982271	
-0.107364	
-0.110368	
-0.103537	
-0.0922953	
-0.088934	
-0.0973924	
-0.105327	
-0.0986731	
-0.0807942	
-0.0684086	
-0.0697208	
-0.0764352	
-0.0791734	
-0.0805237	
-0.086255	
-0.0906883	
-0.0810965	
-0.0565134	
-0.0333333	
-0.0271976	
-0.0342882	
-0.03787	
-0.0316586	
-0.027517	
-0.0368972	
-0.0529132	
-0.05841	
-0.0481429	
-0.0349711	
-0.0339293	
-0.0462369	
-0.0608462	
-0.0674902	
-0.0655124	
-0.0620801	
-0.0640401	
-0.0710198	
-0.0760614	
-0.0738619	
-0.0675486	
-0.0649503	
-0.0685478	
-0.0724116	
-0.0699859	
-0.0618125	
-0.0541236	
-0.0521908	
-0.0539098	
-0.0421252	
0.0172394	
0.150183	
0.326049	
0.441211	
0.385723	
0.149776	
-0.14435	
-0.334065	
-0.344845	
-0.230123	
-0.100384	
-0.0289774	
-0.0193545	
-0.0362039	
-0.0487586	
-0.0484586	
-0.0418154	
-0.0371289	
-0.0376113	
-0.0414672	
-0.0441069	
-0.0406205	
-0.0298939	
-0.01764	
-0.0119192	
-0.0136714	
-0.0154361	
-0.012108	
-0.0081078	
-0.00906673	
-0.0111298	
-0.00603349	
0.00574949	
0.015321	
0.0183752	
0.0203148	
0.0281559	
0.0440867	
0.0662806	
0.0882582	
0.0984074	
0.090171	
0.0741966	
0.0704506	
0.0845226	
0.0999352	
0.0980267	
0.0776831	
0.0501451	
0.0219104	
-0.00860696	
-0.0409092	
-0.0676539	
-0.0814616	
-0.0826571	
-0.0794423	
-0.0815956	
-0.0928959	
-0.108513	
-0.120621	
-0.126203	
-0.127654	
-0.127181	
-0.124093	
-0.117511	
-0.108828	
-0.100951	
-0.0962615	
-0.0946176	
-0.0929107	
-0.0887191	
-0.0848282	
-0.0861928	
-0.0908497	
-0.0895385	
-0.0789904	
-0.0703775	
-0.076875	
-0.09503	
-0.106719	
-0.100383	
-0.0834554	
-0.0711602	
-0.0685182	
-0.0684302	
-0.0652489	
-0.0635787	
-0.070422	
-0.0829993	
-0.0910585	
-0.09068	
-0.0885654	
-0.090488	
-0.0923668	
-0.0873203	
-0.0763623	
-0.0664345	
-0.0611827	
-0.0594415	
-0.0605457	
-0.0649223	
-0.0703063	
-0.0734403	
-0.0752376	
-0.0780243	
-0.078271	
-0.0707632	
-0.0613575	
-0.0645042	
-0.0819541	
-0.0940461	
-0.082535	
-0.0555248	
-0.0377429	
-0.0391444	
-0.0455064	
-0.0406056	
-0.0264535	
-0.0175621	
-0.0227574	
-0.0374196	
-0.0495965	
-0.0502606	
-0.0399119	
-0.0278046	
-0.0242179	
-0.032428	
-0.0474652	
-0.0608205	
-0.0656643	
-0.0607903	
-0.0529336	
-0.0529059	
-0.0642887	
-0.0764693	
-0.0745881	
-0.0576976	
-0.0418424	
-0.0426643	
-0.0590997	
-0.0768847	
-0.0843402	
-0.0815547	
-0.0773364	
-0.0806458	
-0.0901959	
-0.0838684	
-0.0214269	
0.1221	
0.307484	
0.424108	
0.362848	
0.118083	
-0.188271	
-0.399643	
-0.446411	
-0.377942	
-0.291391	
-0.248366	
-0.254524	
-0.287864	
-0.324532	
-0.347139	
-0.349383	
-0.337523	
-0.320722	
-0.300183	
-0.272255	
-0.238656	
-0.206375	
-0.17844	
-0.151449	
-0.123845	
-0.101419	
-0.0897869	
-0.0823861	
-0.0620345	
-0.0192567	
0.0335336	
0.0724443	
0.0867574	
0.0877079	
0.0934271	
0.112953	
0.145594	
0.185756	
0.223669	
0.249715	
0.264128	
0.276868	
0.29371	
0.308262	
0.311493	
0.302675	
0.286029	
0.262308	
0.230029	
0.192168	
0.156099	
0.127368	
0.106222	
0.0893571	
0.0738887	
0.0613625	
0.0577042	
0.0656427	
0.0776313	
0.0820407	
0.0768573	
0.0700671	
0.0653108	
0.0570069	
0.0443949	
0.0399007	
0.0537201	
0.0768613	
0.090988	
0.0916442	
0.0899554	
0.0928365	
0.0949812	
0.0931002	
0.0949018	
0.10637	
0.119614	
0.123458	
0.121663	
0.130634	
0.158447	
0.193032	
0.214543	
0.216283	
0.209587	
0.208586	
0.214408	
0.217329	
0.211716	
0.202946	
0.198393	
0.197388	
0.194469	
0.188774	
0.184432	
0.183059	
0.181243	
0.175875	
0.168196	
0.161446	
0.15639	
0.150144	
0.139567	
0.125663	
0.113056	
0.104164	
0.0964957	
0.0879481	
0.0816056	
0.0813196	
0.084724	
0.0853576	
0.080752	
0.0733465	
0.0630428	
0.0449704	
0.0188686	
-0.00332373	
-0.00679847	
0.00760892	
0.0197998	
0.00935101	
-0.0248252	
-0.0671784	
-0.10402	
-0.132986	
-0.15608	
-0.17276	
-0.184194	
-0.197751	
-0.219337	
-0.242452	
-0.252536	
-0.245117	
-0.233815	
-0.23471	
-0.247139	
-0.258454	
-0.264213	
-0.267266	
-0.250408	
-0.170479	
-0.00952608	
0.164866	
0.221723	
0.0811465	
-0.193915	
-0.441315	
-0.540282	
-0.497273	
-0.399455	
-0.315875	
-0.26078	
-0.226708	
-0.214544	
-0.224867	
-0.242793	
-0.24775	
-0.233913	
-0.212678	
-0.196767	
-0.187849	
-0.179412	
-0.166526	
-0.150678	
-0.136937	
-0.127399	
-0.117341	
-0.0999206	
-0.0763071	
-0.0577795	
-0.0538272	
-0.0605235	
-0.06479	
-0.0573504	
-0.0371416	
-0.00789944	
0.0219815	
0.0406464	
0.0438874	
0.0425526	
0.0490633	
0.0597776	
0.0623664	
0.0573945	
0.0570697	
0.0616408	
0.0534232	
0.0211243	
-0.0224074	
-0.0564249	
-0.0785708	
-0.104559	
-0.144538	
-0.189022	
-0.219807	
-0.229516	
-0.227755	
-0.230306	
-0.244477	
-0.264642	
-0.280311	
-0.287005	
-0.288919	
-0.29197	
-0.295775	
-0.29442	
-0.286407	
-0.281012	
-0.289047	
-0.307072	
-0.31814	
-0.311921	
-0.297507	
-0.290549	
-0.293203	
-0.294179	
-0.285112	
-0.268683	
-0.251532	
-0.236826	
-0.224853	
-0.214465	
-0.201816	
-0.182869	
-0.159592	
-0.13935	
-0.125563	
-0.112547	
-0.0922278	
-0.0633396	
-0.0319986	
-0.0055041	
0.0129625	
0.0258151	
0.0385257	
0.0538346	
0.0688181	
0.0807724	
0.0944989	
0.116972	
0.14368	
0.159162	
0.157128	
0.15291	
0.166618	
0.197841	
0.227584	
0.243756	
0.252616	
0.263283	
0.274473	
0.283611	
0.297347	
0.321641	
0.348424	
0.364131	
0.368511	
0.373886	
0.385437	
0.391698	
0.378965	
0.350293	
0.32458	
0.316478	
0.320931	
0.320415	
0.305635	
0.284578	
0.270334	
0.264918	
0.259482	
0.248218	
0.235803	
0.228818	
0.224264	
0.211959	
0.188133	
0.161383	
0.142308	
0.133169	
0.137922	
0.180861	
0.2937	
0.462467	
0.594834	
0.573486	
0.364531	
0.0664913	
-0.162613	
-0.229158	
-0.158299	
-0.0440217	
0.0354841	
0.0583837	
0.0436212	
0.0177775	
-0.00298454	
-0.0134079	
-0.0143727	
-0.0102193	
-0.00713488	
-0.00993656	
-0.0182481	
-0.0259502	
-0.0257963	
-0.0160579	
-0.00321738	
0.00274197	
-0.00278001	
-0.0142501	
-0.0209462	
-0.0173287	
-0.00800734	
-0.00141897	
0.00145103	
0.0100168	
0.0331621	
0.0659294	
0.0911495	
0.0962395	
0.0854466	
0.0734763	
0.0702213	
0.0748003	
0.081745	
0.0877589	
0.0912166	
0.0883027	
0.0735095	
0.0454967	
0.0108649	
-0.0208483	
-0.0464902	
-0.0710701	
-0.0990071	
-0.126325	
-0.14411	
-0.148346	
-0.144381	
-0.142641	
-0.15038	
-0.165067	
-0.175051	
-0.170117	
-0.152992	
-0.13747	
-0.133982	
-0.140045	
-0.145753	
-0.145106	
-0.140349	
-0.137919	
-0.14194	
-0.150549	
-0.157619	
-0.157969	
-0.150368	
-0.136504	
-0.120147	
-0.107741	
-0.105452	
-0.112959	
-0.122802	
-0.128035	
-0.128379	
-0.127774	
-0.128777	
-0.130662	
-0.130683	
-0.12676	
-0.120837	
-0.118461	
-0.122216	
-0.127195	
-0.126273	
-0.118658	
-0.110478	
-0.108248	
-0.113868	
-0.124165	
-0.133095	
-0.135777	
-0.132316	
-0.127064	
-0.12346	
-0.120767	
-0.11681	
-0.112776	
-0.113275	
-0.120443	
-0.128906	
-0.129604	
-0.120175	
-0.108379	
-0.101609	
-0.0959259	
-0.0814716	
-0.0576231	
-0.0361495	
-0.0288597	
-0.0374795	
-0.0550715	
-0.0709457	
-0.0748121	
-0.0642813	
-0.0499659	
-0.0462504	
-0.0549938	
-0.0644758	
-0.0661294	
-0.065379	
-0.0725717	
-0.0892191	
-0.107667	
-0.119801	
-0.121705	
-0.113836	
-0.101846	
-0.094723	
-0.0971903	
-0.104537	
-0.107875	
-0.10434	
-0.101024	
-0.107498	
-0.118434	
-0.0990156	
-0.000620689	
0.182627	
0.366078	
0.412384	
0.250471	
-0.0427198	
-0.299097	
-0.401592	
-0.361162	
-0.265775	
-0.185583	
-0.137232	
-0.111184	
-0.101295	
-0.105958	
-0.118766	
-0.129261	
-0.131426	
-0.128258	
-0.127335	
-0.131413	
-0.134012	
-0.12672	
-0.110459	
-0.095019	
-0.0865833	
-0.0817782	
-0.0767039	
-0.0744853	
-0.0780436	
-0.0818922	
-0.079134	
-0.0721067	
-0.0674922	
-0.064118	
-0.0546591	
-0.0377268	
-0.0195772	
-0.00439269	
0.00942351	
0.0234463	
0.0361773	
0.0451644	
0.0470939	
0.0383844	
0.0214833	
0.00677991	
0.000426052	
-0.0074702	
-0.0340149	
-0.0819881	
-0.132745	
-0.162535	
-0.164014	
-0.151666	
-0.147259	
-0.159593	
-0.178564	
-0.18943	
-0.189749	
-0.188316	
-0.190626	
-0.192998	
-0.191344	
-0.188172	
-0.187921	
-0.190298	
-0.191049	
-0.186784	
-0.178571	
-0.172933	
-0.177036	
-0.188693	
-0.194121	
-0.182616	
-0.162553	
-0.154902	
-0.1686	
-0.188715	
-0.193327	
-0.178205	
-0.159871	
-0.155955	
-0.167349	
-0.180209	
-0.18155	
-0.170404	
-0.155509	
-0.145623	
-0.143603	
-0.147728	
-0.154843	
-0.161005	
-0.162157	
-0.157254	
-0.149924	
-0.144894	
-0.143283	
-0.143144	
-0.143709	
-0.146028	
-0.148725	
-0.146357	
-0.135291	
-0.120504	
-0.112945	
-0.118355	
-0.130667	
-0.138635	
-0.137395	
-0.130489	
-0.121916	
-0.111471	
-0.0992875	
-0.0899023	
-0.0878859	
-0.0916327	
-0.0942986	
-0.0896379	
-0.0760804	
-0.0579545	
-0.0443779	
-0.0437846	
-0.0565385	
-0.0741976	
-0.0874714	
-0.0928239	
-0.0903079	
-0.0799424	
-0.0655129	
-0.058565	
-0.0700159	
-0.0960729	
-0.118833	
-0.123626	
-0.111291	
-0.092416	
-0.076617	
-0.0704081	
-0.077042	
-0.0911407	
-0.0989871	
-0.0919258	
-0.0764251	
-0.0657139	
-0.0657356	
-0.0709387	
-0.0612608	
0.00117871	
0.145846	
0.335947	
0.452526	
0.381179	
0.130792	
-0.156348	
-0.326278	
-0.33336	
-0.241319	
-0.138565	
-0.0745233	
-0.0559297	
-0.0663577	
-0.0805641	
-0.0789329	
-0.0612901	
-0.0440642	
-0.0412276	
-0.051098	
-0.0615261	
-0.0626463	
-0.0529581	
-0.0379171	
-0.0265093	
-0.0264536	
-0.0374737	
-0.0488483	
-0.0480716	
-0.0341889	
-0.0195601	
-0.0159701	
-0.0217275	
-0.0255403	
-0.020458	
-0.0091868	
0.0033644	
0.0166317	
0.0310212	
0.0429845	
0.0487821	
0.0512442	
0.0569855	
0.0661782	
0.0699663	
0.0603107	
0.038818	
0.0131444	
-0.0121183	
-0.0371235	
-0.0614806	
-0.0822656	
-0.0979917	
-0.111279	
-0.126021	
-0.143021	
-0.158965	
-0.169252	
-0.172262	
-0.171243	
-0.17134	
-0.174649	
-0.17889	
-0.180285	
-0.176367	
-0.16702	
-0.155457	
-0.148055	
-0.150127	
-0.15989	
-0.167924	
-0.16504	
-0.151617	
-0.138232	
-0.13597	
-0.146268	
-0.160815	
-0.170449	
-0.172267	
-0.168206	
-0.159653	
-0.146086	
-0.128599	
-0.112539	
-0.105015	
-0.109034	
-0.119978	
-0.128667	
-0.128973	
-0.12249	
-0.115825	
-0.114135	
-0.11692	
-0.118343	
-0.11233	
-0.100181	
-0.0919999	
-0.0958802	
-0.106249	
-0.109231	
-0.100311	
-0.0894429	
-0.0861287	
-0.08698	
-0.0832617	
-0.074836	
-0.0694388	
-0.0706367	
-0.073284	
-0.0714454	
-0.0661168	
-0.0629698	
-0.064632	
-0.0676668	
-0.067108	
-0.0617724	
-0.0538695	
-0.046063	
-0.0420616	
-0.0469378	
-0.0604891	
-0.0720335	
-0.0706828	
-0.0617754	
-0.0630944	
-0.0805292	
-0.0973671	
-0.0956263	
-0.0803141	
-0.0717896	
-0.0782659	
-0.0879995	
-0.0885075	
-0.0812987	
-0.0736959	
-0.0672174	
-0.0616816	
-0.0601186	
-0.0539074	
-0.00733168	
0.116901	
0.296719	
0.426992	
0.390022	
0.169077	
-0.117752	
-0.311961	
-0.342232	
-0.256743	
-0.148217	
-0.0718425	
-0.03276	
-0.0202091	
-0.0279213	
-0.0472097	
-0.0615963	
-0.0580192	
-0.0387657	
-0.0175822	
-0.005524	
-0.00352679	
-0.00746835	
-0.0149851	
-0.0237594	
-0.0270531	
-0.0182013	
-0.000304251	
0.0143637	
0.0170979	
0.0113026	
0.00688554	
0.0100608	
0.0203861	
0.0336827	
0.044836	
0.0504808	
0.0519896	
0.0546285	
0.0628323	
0.0781816	
0.100657	
0.125868	
0.1407	
0.130914	
0.098549	
0.0647276	
0.0475658	
0.0414277	
0.0254837	
-0.00961798	
-0.0513294	
-0.0816766	
-0.097248	
-0.108795	
-0.124192	
-0.137626	
-0.137955	
-0.124642	
-0.110714	
-0.109101	
-0.119256	
-0.129184	
-0.128782	
-0.119211	
-0.110108	
-0.1092	
-0.11467	
-0.117671	
-0.112677	
-0.104384	
-0.102684	
-0.110787	
-0.119786	
-0.11631	
-0.0966533	
-0.073235	
-0.0642014	
-0.074045	
-0.086868	
-0.0832205	
-0.062725	
-0.0447918	
-0.0456844	
-0.0597311	
-0.066939	
-0.0566222	
-0.0386934	
-0.0307998	
-0.0379712	
-0.0484772	
-0.0491953	
-0.0407074	
-0.033891	
-0.0342977	
-0.0361077	
-0.0324129	
-0.0251065	
-0.020773	
-0.0212425	
-0.0227897	
-0.0219715	
-0.0184105	
-0.0137931	
-0.0109586	
-0.0118095	
-0.013804	
-0.0113828	
-0.00363004	
0.00272891	
0.00171815	
-0.00357855	
-0.00592314	
-0.00461271	
-0.00530793	
-0.010691	
-0.0179328	
-0.0251394	
-0.0333668	
-0.0411729	
-0.0438121	
-0.0404066	
-0.0367995	
-0.038281	
-0.0430059	
-0.0452511	
-0.0427331	
-0.0387974	
-0.0390344	
-0.0462098	
-0.0563367	
-0.0607104	
-0.0557426	
-0.047313	
-0.0338727	
0.014711	
0.13775	
0.319683	
0.456178	
0.422112	
0.194734	
-0.104379	
-0.307466	
-0.336976	
-0.241928	
-0.122564	
-0.0449887	
-0.0195446	
-0.0255612	
-0.037391	
-0.0385982	
-0.0283489	
-0.0167095	
-0.0108484	
-0.00805545	
-0.00316396	
0.00325084	
0.00814041	
0.0122298	
0.017031	
0.0189788	
0.0135834	
0.00467786	
0.00292836	
0.0134507	
0.0295185	
0.0412024	
0.0472552	
0.0546472	
0.0669398	
0.07774	
0.0791139	
0.0740973	
0.075244	
0.0895295	
0.109232	
0.120775	
0.119717	
0.113217	
0.108759	
0.104695	
0.0939867	
0.0749544	
0.0540499	
0.0366344	
0.0189613	
-0.00593182	
-0.0358829	
-0.0598596	
-0.072634	
-0.082672	
-0.0995568	
-0.117525	
-0.119897	
-0.10092	
-0.0765571	
-0.0694617	
-0.0862362	
-0.112653	
-0.128563	
-0.12406	
-0.104167	
-0.0833476	
-0.0742914	
-0.0767191	
-0.0775244	
-0.0662881	
-0.0490437	
-0.0414981	
-0.0504147	
-0.0676684	
-0.0811667	
-0.0850214	
-0.0798178	
-0.0703877	
-0.065007	
-0.0706536	
-0.0852862	
-0.0975325	
-0.0968591	
-0.0832543	
-0.0660531	
-0.0547612	
-0.0520434	
-0.0539692	
-0.0549465	
-0.0526309	
-0.0498546	
-0.0524688	
-0.0638458	
-0.0798765	
-0.0902256	
-0.0870794	
-0.0732827	
-0.0597665	
-0.0539583	
-0.0526448	
-0.0476772	
-0.0370375	
-0.0279102	
-0.0285482	
-0.0384396	
-0.0479225	
-0.0479118	
-0.0387949	
-0.0283801	
-0.0223863	
-0.0199072	
-0.0180808	
-0.0172592	
-0.0195498	
-0.025337	
-0.0340998	
-0.046198	
-0.0601522	
-0.0698279	
-0.0690663	
-0.0595618	
-0.0502809	
-0.0476694	
-0.0494919	
-0.0503199	
-0.050063	
-0.0528135	
-0.0579982	
-0.0587153	
-0.0526758	
-0.0488526	
-0.0507064	
-0.0295525	
0.0667824	
0.251186	
0.439442	
0.486994	
0.317465	
0.0134871	
-0.243621	
-0.329785	
-0.263192	
-0.146066	
-0.0574864	
-0.0143478	
-0.00271751	
-0.00912858	
-0.0223017	
-0.0302584	
-0.0277299	
-0.019249	
-0.010796	
-0.00385574	
0.000622592	
-0.000571117	
-0.00706451	
-0.0106628	
-0.00305866	
0.0127752	
0.0240251	
0.0227406	
0.015512	
0.0151892	
0.0253474	
0.0378637	
0.045538	
0.0507513	
0.0582211	
0.0648743	
0.0645575	
0.0608385	
0.0656037	
0.0824341	
0.100184	
0.108408	
0.111094	
0.116928	
0.12237	
0.115309	
0.0929702	
0.0656082	
0.0420454	
0.0205041	
-0.00433871	
-0.0323432	
-0.0584184	
-0.0769699	
-0.0847516	
-0.0844759	
-0.0858041	
-0.0963258	
-0.110647	
-0.115491	
-0.107472	
-0.0985725	
-0.100745	
-0.111454	
-0.11842	
-0.11384	
-0.100234	
-0.0862498	
-0.08031	
-0.0853477	
-0.0960026	
-0.102021	
-0.097001	
-0.0843252	
-0.0745008	
-0.0764569	
-0.089326	
-0.101346	
-0.0997841	
-0.0848099	
-0.0705958	
-0.0692886	
-0.0775131	
-0.0829818	
-0.0799967	
-0.0725651	
-0.0664272	
-0.0650255	
-0.0697789	
-0.0768493	
-0.0770083	
-0.067124	
-0.0589784	
-0.0668054	
-0.086866	
-0.0997042	
-0.0940958	
-0.0789043	
-0.0681241	
-0.0641539	
-0.0617277	
-0.0594485	
-0.0583787	
-0.0549453	
-0.0455644	
-0.0360754	
-0.0368354	
-0.0481122	
-0.0585492	
-0.0594127	
-0.0531498	
-0.0460672	
-0.0395917	
-0.0321879	
-0.0248569	
-0.0210261	
-0.0236973	
-0.0346363	
-0.0534475	
-0.0749735	
-0.0895527	
-0.0895501	
-0.077616	
-0.0672312	
-0.0712302	
-0.0875039	
-0.0988168	
-0.0907516	
-0.0686535	
-0.0525636	
-0.055799	
-0.073626	
-0.0928514	
-0.1021	
-0.083628	
-0.00490431	
0.154479	
0.350164	
0.463623	
0.383401	
0.117253	
-0.189107	
-0.366101	
-0.356236	
-0.23487	
-0.114705	
-0.053326	
-0.0446796	
-0.0608157	
-0.0790554	
-0.0856008	
-0.0779319	
-0.0654645	
-0.0578309	
-0.0535478	
-0.0464912	
-0.0385482	
-0.0360432	
-0.0364823	
-0.030494	
-0.0177523	
-0.00950345	
-0.0115006	
-0.0153611	
-0.0135094	
-0.0124619	
-0.0205776	
-0.0294187	
-0.0206064	
0.00956502	
0.0433076	
0.0613895	
0.0625929	
0.0606154	
0.067055	
0.0808345	
0.0919862	
0.0929017	
0.0849698	
0.0748331	
0.0670876	
0.0629313	
0.0621957	
0.0609704	
0.0495246	
0.0202584	
-0.0213683	
-0.0593875	
-0.0816736	
-0.0879948	
-0.0856917	
-0.0838949	
-0.0912674	
-0.110948	
-0.134388	
-0.146168	
-0.13925	
-0.122246	
-0.108943	
-0.104486	
-0.104818	
-0.10553	
-0.10627	
-0.108057	
-0.11034	
-0.1107	
-0.105929	
-0.0951197	
-0.0833375	
-0.0793537	
-0.0865817	
-0.0983313	
-0.105294	
-0.105724	
-0.104773	
-0.106036	
-0.108045	
-0.107622	
-0.102785	
-0.0937599	
-0.0844822	
-0.0810685	
-0.0851921	
-0.0907599	
-0.0904548	
-0.0841186	
-0.0783048	
-0.079018	
-0.0859886	
-0.0919449	
-0.0878522	
-0.0731189	
-0.0604608	
-0.0642369	
-0.0819759	
-0.0940368	
-0.085547	
-0.0634295	
-0.0469715	
-0.0456505	
-0.0519565	
-0.0541663	
-0.0500997	
-0.0464305	
-0.0479288	
-0.0514525	
-0.0510969	
-0.0460243	
-0.0403502	
-0.0372163	
-0.037062	
-0.041017	
-0.0507196	
-0.0632907	
-0.0713701	
-0.0714957	
-0.0691123	
-0.0714978	
-0.07824	
-0.0830817	
-0.0836631	
-0.0840947	
-0.0870528	
-0.0882366	
-0.0822645	
-0.071602	
-0.0650411	
-0.0676405	
-0.0757801	
-0.0786258	
-0.054276	
0.0313696	
0.19369	
0.37689	
0.455077	
0.330313	
0.042529	
-0.242697	
-0.372622	
-0.326426	
-0.199744	
-0.0988594	
-0.064973	
-0.0776554	
-0.0973366	
-0.0985428	
-0.0801704	
-0.0570988	
-0.042851	
-0.0389723	
-0.0395342	
-0.0408022	
-0.042965	
-0.0457266	
-0.0471629	
-0.0468035	
-0.0465417	
-0.0471629	
-0.0457082	
-0.0384513	
-0.0263086	
-0.0147693	
-0.00719951	
-0.000550053	
0.00975612	
0.0222278	
0.0301836	
0.0305332	
0.0284536	
0.0315527	
0.0415127	
0.0536431	
0.0629607	
0.0677691	
0.0680464	
0.0638406	
0.0562725	
0.047662	
0.0388344	
0.0271374	
0.0083981	
-0.0191201	
-0.0526432	
-0.0857755	
-0.111328	
-0.125344	
-0.130242	
-0.132977	
-0.137954	
-0.142338	
-0.140773	
-0.134581	
-0.132762	
-0.141265	
-0.153114	
-0.15382	
-0.138831	
-0.122209	
-0.122485	
-0.139578	
-0.152054	
-0.14183	
-0.117256	
-0.103909	
-0.113227	
-0.129655	
-0.132754	
-0.122583	
-0.113803	
-0.111244	
-0.105933	
-0.0955285	
-0.0929175	
-0.106576	
-0.124296	
-0.128735	
-0.122111	
-0.121277	
-0.130711	
-0.13506	
-0.121287	
-0.0962541	
-0.0771021	
-0.0731566	
-0.0827682	
-0.0997708	
-0.11525	
-0.118447	
-0.105506	
-0.0869427	
-0.0793655	
-0.0882441	
-0.103348	
-0.111663	
-0.109345	
-0.099482	
-0.0849702	
-0.0689867	
-0.0581769	
-0.0582676	
-0.0666457	
-0.0739433	
-0.0738107	
-0.0687766	
-0.0667242	
-0.0733624	
-0.0868372	
-0.0979524	
-0.0982544	
-0.0905584	
-0.0879138	
-0.097759	
-0.110841	
-0.112402	
-0.101959	
-0.0940168	
-0.0992397	
-0.112753	
-0.123149	
-0.126142	
-0.125118	
-0.123065	
-0.119799	
-0.115904	
-0.112934	
-0.103921	
-0.063682	
0.0403345	
0.208284	
0.371221	
0.414034	
0.266852	
-0.0157453	
-0.281938	
-0.402841	
-0.365772	
-0.253925	
-0.155191	
-0.103138	
-0.0870941	
-0.0864241	
-0.0861932	
-0.0788064	
-0.0668872	
-0.0610498	
-0.0670604	
-0.0777926	
-0.0820563	
-0.0772209	
-0.0688899	
-0.062347	
-0.0589686	
-0.0576941	
-0.0555653	
-0.0493541	
-0.0401527	
-0.0334482	
-0.0313536	
-0.0283907	
-0.0191466	
-0.00653172	
0.00294072	
0.00946228	
0.019447	
0.0356288	
0.0531047	
0.065502	
0.0708589	
0.0712668	
0.0706437	
0.0728737	
0.0776802	
0.0777787	
0.0651134	
0.041578	
0.0184996	
0.00264651	
-0.0123691	
-0.0364322	
-0.068476	
-0.0972517	
-0.114831	
-0.123278	
-0.126904	
-0.12417	
-0.112993	
-0.100954	
-0.101005	
-0.114189	
-0.124864	
-0.119841	
-0.106484	
-0.102905	
-0.112898	
-0.120391	
-0.110308	
-0.0874806	
-0.0705812	
-0.0707747	
-0.0806359	
-0.084081	
-0.0742974	
-0.059534	
-0.0519773	
-0.0547175	
-0.061755	
-0.0669808	
-0.0680172	
-0.0631251	
-0.051424	
-0.0382099	
-0.0344409	
-0.046056	
-0.0653279	
-0.0768089	
-0.07266	
-0.0598405	
-0.0512562	
-0.0524095	
-0.0590627	
-0.0651458	
-0.0677924	
-0.0651715	
-0.0558595	
-0.0435134	
-0.0375961	
-0.0441888	
-0.0570707	
-0.0624181	
-0.0534103	
-0.0373482	
-0.0272162	
-0.0288699	
-0.03783	
-0.0453399	
-0.0449501	
-0.0359946	
-0.0241316	
-0.0171465	
-0.0180428	
-0.0239781	
-0.0328178	
-0.0462767	
-0.0638199	
-0.0784325	
-0.0834944	
-0.0805312	
-0.0754471	
-0.0706459	
-0.0661442	
-0.0645558	
-0.0680222	
-0.0725624	
-0.0724007	
-0.0690543	
-0.0704998	
-0.0798761	
-0.0836924	
-0.0477752	
0.0656273	
0.251499	
0.423779	
0.45303	
0.278436	
-0.0179012	
-0.270838	
-0.369382	
-0.324669	
-0.218291	
-0.119185	
-0.0561248	
-0.0339547	
-0.04384	
-0.0634336	
-0.0694316	
-0.0568586	
-0.0400019	
-0.0334924	
-0.0376853	
-0.043364	
-0.0449775	
-0.0445656	
-0.0447233	
-0.0435113	
-0.0383121	
-0.0306523	
-0.0236226	
-0.0170646	
-0.00927023	
-0.00142744	
0.00425335	
0.00920833	
0.0159668	
0.022344	
0.0247892	
0.0268906	
0.0365239	
0.0532589	
0.0667115	
0.0704823	
0.0704365	
0.0747693	
0.0819525	
0.0839657	
0.0771664	
0.0637685	
0.0444946	
0.0162521	
-0.0210923	
-0.0597034	
-0.0893287	
-0.106945	
-0.1174	
-0.124456	
-0.126317	
-0.122876	
-0.121624	
-0.129465	
-0.141812	
-0.147876	
-0.145417	
-0.141712	
-0.140121	
-0.135566	
-0.126229	
-0.1205	
-0.125676	
-0.135254	
-0.135151	
-0.120905	
-0.102251	
-0.0906559	
-0.0885074	
-0.0918537	
-0.0971389	
-0.101287	
-0.100493	
-0.0944827	
-0.0890321	
-0.08953	
-0.0940733	
-0.096612	
-0.0944887	
-0.0890252	
-0.0810962	
-0.071006	
-0.0621572	
-0.0603702	
-0.0678469	
-0.0795061	
-0.0868086	
-0.0854787	
-0.0791453	
-0.0745215	
-0.0731322	
-0.0699592	
-0.0611517	
-0.0499441	
-0.0423427	
-0.0398725	
-0.0402621	
-0.0427307	
-0.0475699	
-0.0517713	
-0.0508956	
-0.0462836	
-0.045489	
-0.053146	
-0.0647711	
-0.07208	
-0.0717603	
-0.0664897	
-0.0600452	
-0.0552371	
-0.0552463	
-0.0621752	
-0.0728223	
-0.0793564	
-0.0772288	
-0.0709101	
-0.0684323	
-0.0708332	
-0.0714783	
-0.0669637	
-0.0615464	
-0.0515804	
-0.00776555	
0.108229	
0.288918	
0.445219	
0.454204	
0.268895	
-0.0209959	
-0.253953	
-0.327081	
-0.261157	
-0.151443	
-0.076919	
-0.056794	
-0.0673089	
-0.0768771	
-0.0677798	
-0.0413967	
-0.012557	
0.00282637	
-0.000552283	
-0.014747	
-0.025956	
-0.0253977	
-0.0157629	
-0.00777272	
-0.00822331	
-0.0117244	
-0.00832751	
0.00102682	
0.00439528	
-0.00242311	
-0.00566369	
0.00970621	
0.0388824	
0.0627442	
0.0711542	
0.0703623	
0.0692352	
0.0700492	
0.0739989	
0.0840231	
0.0974554	
0.104757	
0.101514	
0.0956167	
0.096163	
0.0986867	
0.0883961	
0.0588066	
0.0220163	
-0.0029915	
