0.000000
0.019531
0.048828
0.007324
-0.002441
-0.021973
-0.046387
-0.043945
-0.083008
-0.058594
-0.024414
-0.002441
0.024414
-0.007324
-0.014648
-0.041504
-0.061035
-0.070801
-0.097656
-0.075684
-0.043945
-0.019531
-0.004883
-0.024414
-0.039062
-0.063477
-0.083008
-0.092773
-0.095215
-0.085449
-0.056152
-0.026855
-0.017090
-0.012207
-0.041504
-0.068359
-0.087891
-0.104980
-0.090332
-0.100098
-0.070801
-0.043945
-0.034180
0.000000
-0.051270
-0.075684
-0.092773
-0.104980
-0.068359
-0.095215
-0.063477
-0.034180
-0.026855
0.004883
-0.061035
-0.090332
-0.109863
-0.124512
-0.095215
-0.124512
-0.097656
-0.070801
-0.058594
-0.024414
-0.080566
-0.100098
-0.117188
-0.129395
-0.102539
-0.126953
-0.100098
-0.080566
-0.068359
-0.048828
-0.100098
-0.131836
-0.153809
-0.158691
-0.144043
-0.151367
-0.119629
-0.092773
-0.068359
-0.043945
-0.068359
-0.078125
-0.090332
-0.078125
-0.048828
-0.021973
0.017090
0.053711
0.090332
0.117188
0.124512
0.104980
0.102539
0.124512
0.153809
0.209961
0.239258
0.283203
0.327148
0.358887
0.390625
0.346680
0.336914
0.336914
0.341797
0.385742
0.356445
0.351562
0.344238
0.317383
0.305176
0.195312
0.136719
0.092773
0.065918
0.083008
0.034180
0.019531
0.009766
-0.004883
-0.012207
-0.104980
-0.146484
-0.163574
-0.170898
-0.136719
-0.166016
-0.156250
-0.146484
-0.141602
-0.136719
-0.209961
-0.244141
-0.261230
-0.256348
-0.227051
-0.244141
-0.229492
-0.219727
-0.205078
-0.207520
-0.266113
-0.292969
-0.310059
-0.297852
-0.266113
-0.258789
-0.246582
-0.239258
-0.227051
-0.236816
-0.285645
-0.332031
-0.354004
-0.332031
-0.295410
-0.236816
-0.190430
-0.104980
0.014648
0.146484
0.314941
0.485840
0.737305
1.057129
1.416016
1.809082
2.087402
2.314453
2.424316
2.402344
2.304688
2.055664
1.804199
1.533203
1.254883
1.020508
0.717773
0.480957
0.285645
0.104980
-0.031738
-0.207520
-0.285645
-0.307617
-0.292969
-0.239258
-0.258789
-0.229492
-0.187988
-0.161133
-0.131836
-0.170898
-0.158691
-0.126953
-0.075684
-0.012207
-0.021973
0.000000
0.024414
0.036621
0.034180
-0.017090
-0.021973
-0.007324
0.034180
0.078125
0.075684
0.087891
0.100098
0.107422
0.092773
0.056152
0.041504
0.053711
0.095215
0.134277
0.151367
0.148926
0.163574
0.168457
0.148926
0.136719
0.109863
0.117188
0.156250
0.187988
0.229492
0.212402
0.231934
0.244141
0.229492
0.239258
0.195312
0.219727
0.263672
0.305176
0.363770
0.339355
0.363770
0.383301
0.380859
0.402832
0.358887
0.385742
0.434570
0.485840
0.544434
0.524902
0.551758
0.571289
0.571289
0.593262
0.559082
0.590820
0.642090
0.700684
0.766602
0.759277
0.798340
0.827637
0.849609
0.871582
0.852051
0.888672
0.947266
1.013184
1.071777
1.083984
1.127930
1.157227
1.181641
1.201172
1.201172
1.237793
1.296387
1.367188
1.418457
1.440430
1.464844
1.484375
1.494141
1.496582
1.501465
1.501465
1.533203
1.574707
1.584473
1.594238
1.552734
1.518555
1.464844
1.401367
1.354980
1.264648
1.230469
1.203613
1.154785
1.125488
1.015625
0.942383
0.854492
0.761719
0.708008
0.595703
0.556641
0.532227
0.493164
0.466309
0.368652
0.307617
0.241699
0.175781
0.146484
0.068359
0.063477
0.070801
0.063477
0.070801
0.009766
-0.017090
-0.056152
-0.087891
-0.100098
-0.151367
-0.141602
-0.119629
-0.107422
-0.092773
-0.129395
-0.136719
-0.168457
-0.190430
-0.197754
-0.227051
-0.207520
-0.185547
-0.161133
-0.146484
-0.166016
-0.183105
-0.209961
-0.227051
-0.236816
-0.236816
-0.231934
-0.205078
-0.183105
-0.173340
-0.163574
-0.195312
-0.217285
-0.231934
-0.239258
-0.222168
-0.231934
-0.202637
-0.178223
-0.166016
-0.136719
-0.185547
-0.205078
-0.224609
-0.236816
-0.205078
-0.234375
-0.207520
-0.183105
-0.170898
-0.136719
-0.192871
-0.212402
-0.224609
-0.234375
-0.197754
-0.222168
-0.185547
-0.161133
-0.146484
-0.112305
-0.161133
-0.185547
-0.202637
-0.209961
-0.180664
-0.205078
-0.173340
-0.153809
-0.136719
-0.114746
-0.163574
-0.183105
-0.205078
-0.209961
-0.197754
-0.207520
-0.180664
-0.163574
-0.144043
-0.124512
-0.156250
-0.180664
-0.202637
-0.202637
-0.192871
-0.185547
-0.170898
-0.153809
-0.141602
-0.134277
-0.144043
-0.190430
-0.217285
-0.227051
-0.224609
-0.195312
-0.202637
-0.190430
-0.175781
-0.173340
-0.161133
-0.227051
-0.246582
-0.256348
-0.251465
-0.202637
-0.222168
-0.205078
-0.185547
-0.178223
-0.153809
-0.229492
-0.249023
-0.253906
-0.249023
-0.205078
-0.231934
-0.217285
-0.207520
-0.202637
-0.187988
-0.256348
-0.278320
-0.278320
-0.263672
-0.214844
-0.236816
-0.224609
-0.217285
-0.205078
-0.197754
-0.266113
-0.288086
-0.292969
-0.278320
-0.241699
-0.249023
-0.231934
-0.219727
-0.200195
-0.195312
-0.244141
-0.268555
-0.278320
-0.263672
-0.236816
-0.229492
-0.222168
-0.212402
-0.200195
-0.205078
-0.236816
-0.278320
-0.292969
-0.280762
-0.258789
-0.222168
-0.231934
-0.222168
-0.207520
-0.214844
-0.217285
-0.270996
-0.273438
-0.261230
-0.239258
-0.187988
-0.214844
-0.205078
-0.187988
-0.192871
-0.175781
-0.251465
-0.253906
-0.229492
-0.192871
-0.122070
-0.141602
-0.117188
-0.080566
-0.068359
-0.041504
-0.092773
-0.080566
-0.046387
0.002441
0.080566
0.073242
0.104980
0.144043
0.168457
0.195312
0.153809
0.166016
0.200195
0.249023
0.305176
0.292969
0.310059
0.319824
0.317383
0.292969
0.224609
0.187988
0.170898
0.170898
0.173340
0.131836
0.100098
0.070801
0.034180
-0.019531
-0.092773
-0.148926
-0.170898
-0.166016
-0.158691
-0.161133
-0.192871
-0.202637
-0.214844
-0.251465
-0.273438
-0.327148
-0.332031
-0.307617
-0.292969
-0.266113
-0.302734
-0.297852
-0.305176
-0.327148
-0.324707
-0.385742
-0.378418
-0.344238
-0.314941
-0.268555
-0.312500
-0.302734
-0.295410
-0.319824
-0.314941
-0.375977
-0.368652
-0.344238
-0.324707
-0.295410
-0.336914
-0.327148
-0.307617
-0.295410
-0.249023
-0.234375
-0.129395
0.029297
0.229492
0.468750
0.681152
0.981445
1.306152
1.635742
1.940918
2.136230
2.268066
2.302246
2.255859
2.121582
1.877441
1.608887
1.303711
0.993652
0.693359
0.405273
0.180664
0.017090
-0.095215
-0.190430
-0.261230
-0.312500
-0.334473
-0.346680
-0.354004
-0.339355
-0.334473
-0.280762
-0.212402
-0.170898
-0.119629
-0.122070
-0.107422
-0.104980
-0.112305
-0.085449
-0.109863
-0.075684
-0.034180
-0.009766
0.036621
0.002441
0.004883
0.002441
-0.014648
0.007324
-0.031738
0.002441
0.046387
0.073242
0.117188
0.087891
0.090332
0.080566
0.068359
0.087891
0.053711
0.083008
0.126953
0.158691
0.195312
0.166016
0.166016
0.156250
0.148926
0.161133
0.141602
0.175781
0.219727
0.256348
0.283203
0.270996
0.275879
0.270996
0.275879
0.285645
0.283203
0.319824
0.368652
0.412598
0.444336
0.456543
0.461426
0.456543
0.461426
0.471191
0.495605
0.517578
0.566406
0.615234
0.642090
0.681152
0.668945
0.671387
0.683594
0.700684
0.756836
0.773926
0.832520
0.891113
0.935059
1.003418
0.986328
0.998535
1.020508
1.044922
1.110840
1.113281
1.179199
1.240234
1.286621
1.359863
1.340332
1.352539
1.372070
1.398926
1.462402
1.467285
1.520996
1.567383
1.601562
1.640625
1.599121
1.579590
1.560059
1.545410
1.550293
1.503906
1.494141
1.469727
1.433105
1.394043
1.291504
1.206055
1.118164
1.052246
0.996094
0.920410
0.871582
0.817871
0.769043
0.717773
0.627441
0.544434
0.461426
0.405273
0.361328
0.324707
0.290527
0.263672
0.241699
0.212402
0.178223
0.100098
0.053711
0.026855
0.012207
0.029297
0.009766
0.009766
0.014648
0.009766
0.012207
-0.063477
-0.095215
-0.109863
-0.109863
-0.068359
-0.100098
-0.087891
-0.075684
-0.070801
-0.051270
-0.129395
-0.153809
-0.158691
-0.153809
-0.104980
-0.129395
-0.109863
-0.092773
-0.078125
-0.061035
-0.126953
-0.146484
-0.148926
-0.139160
-0.095215
-0.112305
-0.092773
-0.080566
-0.068359
-0.058594
-0.119629
-0.134277
-0.141602
-0.122070
-0.085449
-0.087891
-0.070801
-0.058594
-0.039062
-0.031738
-0.075684
-0.097656
-0.109863
-0.095215
-0.065918
-0.053711
-0.046387
-0.036621
-0.017090
-0.019531
-0.043945
-0.085449
-0.097656
-0.085449
-0.061035
-0.021973
-0.031738
-0.019531
-0.002441
-0.007324
-0.009766
-0.070801
-0.080566
-0.068359
-0.043945
0.004883
-0.029297
-0.019531
-0.004883
-0.007324
0.000000
-0.075684
-0.080566
-0.068359
-0.041504
0.012207
-0.024414
-0.012207
0.002441
0.002441
0.004883
-0.068359
-0.080566
-0.070801
-0.046387
-0.002441
-0.031738
-0.021973
-0.014648
-0.019531
-0.024414
-0.092773
-0.104980
-0.095215
-0.065918
-0.026855
-0.051270
-0.043945
-0.036621
-0.036621
-0.051270
-0.104980
-0.119629
-0.114746
-0.080566
-0.048828
-0.053711
-0.053711
-0.046387
-0.043945
-0.058594
-0.095215
-0.122070
-0.117188
-0.085449
-0.058594
-0.036621
-0.056152
-0.048828
-0.048828
-0.073242
-0.083008
-0.131836
-0.126953
-0.100098
-0.073242
-0.041504
-0.075684
-0.063477
-0.061035
-0.083008
-0.075684
-0.134277
-0.117188
-0.087891
-0.056152
-0.012207
-0.056152
-0.046387
-0.041504
-0.056152
-0.048828
-0.114746
-0.107422
-0.078125
-0.048828
-0.014648
-0.053711
-0.043945
-0.041504
-0.058594
-0.061035
-0.114746
-0.109863
-0.085449
-0.051270
-0.017090
-0.053711
-0.043945
-0.041504
-0.053711
-0.065918
-0.109863
-0.104980
-0.080566
-0.048828
-0.026855
-0.043945
-0.039062
-0.039062
-0.041504
-0.043945
-0.053711
-0.036621
0.009766
0.070801
0.117188
0.146484
0.156250
0.175781
0.180664
0.178223
0.200195
0.197754
0.249023
0.310059
0.354004
0.410156
0.405273
0.427246
0.437012
0.437012
0.466309
0.439453
0.471191
0.502930
0.512695
0.537109
0.471191
0.446777
0.402832
0.349121
0.334473
0.251465
0.241699
0.244141
0.227051
0.222168
0.151367
0.112305
0.070801
0.021973
0.004883
-0.053711
-0.048828
-0.029297
-0.021973
-0.004883
-0.051270
-0.065918
-0.095215
-0.114746
-0.117188
-0.158691
-0.141602
-0.117188
-0.104980
-0.097656
-0.126953
-0.139160
-0.163574
-0.178223
-0.187988
-0.202637
-0.185547
-0.161133
-0.136719
-0.122070
-0.126953
-0.144043
-0.166016
-0.187988
-0.209961
-0.212402
-0.224609
-0.192871
-0.153809
-0.112305
-0.026855
0.017090
0.114746
0.256348
0.434570
0.693359
0.949707
1.293945
1.665039
2.021484
2.363281
2.539062
2.624512
2.600098
2.482910
2.329102
2.036133
1.752930
1.455078
1.157227
0.908203
0.607910
0.380859
0.205078
0.073242
0.026855
-0.034180
-0.017090
0.007324
0.034180
0.085449
0.063477
0.065918
0.075684
0.095215
0.139160
0.139160
0.183105
0.219727
0.244141
0.273438
0.244141
0.229492
0.217285
0.222168
0.241699
0.251465
0.283203
0.310059
0.334473
0.354004
0.336914
0.312500
0.295410
0.297852
0.310059
0.332031
0.349121
0.373535
0.397949
0.412598
0.424805
0.378418
0.366211
0.371094
0.380859
0.429688
0.424805
0.449219
0.473633
0.488281
0.515137
0.458984
0.451660
0.461426
0.483398
0.544434
0.532227
0.559082
0.585938
0.605469
0.637207
0.573730
0.566406
0.578613
0.598145
0.659180
0.651855
0.683594
0.717773
0.747070
0.783691
0.742188
0.739746
0.754395
0.786133
0.847168
0.854492
0.893555
0.932617
0.976562
1.015625
0.983887
0.998535
1.020508
1.069336
1.137695
1.174316
1.223145
1.267090
1.320801
1.359863
1.352539
1.362305
1.389160
1.445312
1.506348
1.557617
1.594238
1.635742
1.684570
1.711426
1.723633
1.706543
1.718750
1.757812
1.799316
1.853027
1.843262
1.857910
1.872559
1.855469
1.835938
1.745605
1.699219
1.669922
1.645508
1.640625
1.552734
1.494141
1.440430
1.367188
1.301270
1.159668
1.083984
1.032715
0.988770
0.974121
0.871582
0.817871
0.773926
0.715332
0.664062
0.551758
0.493164
0.461426
0.449219
0.461426
0.402832
0.380859
0.366211
0.349121
0.319824
0.236816
0.209961
0.202637
0.222168
0.246582
0.219727
0.219727
0.219727
0.217285
0.195312
0.144043
0.122070
0.124512
0.153809
0.178223
0.173340
0.166016
0.168457
0.173340
0.158691
0.134277
0.107422
0.109863
0.134277
0.161133
0.185547
0.163574
0.168457
0.173340
0.148926
0.141602
0.090332
0.097656
0.129395
0.156250
0.195312
0.161133
0.168457
0.170898
0.153809
0.158691
0.100098
0.104980
0.136719
0.168457
0.212402
0.170898
0.183105
0.190430
0.175781
0.180664
0.122070
0.126953
0.153809
0.185547
0.222168
0.185547
0.195312
0.195312
0.183105
0.175781
0.122070
0.126953
0.151367
0.185547
0.217285
0.187988
0.202637
0.197754
0.185547
0.173340
0.126953
0.126953
0.148926
0.185547
0.205078
0.190430
0.190430
0.180664
0.166016
0.146484
0.122070
0.119629
0.141602
0.178223
0.192871
0.200195
0.183105
0.173340
0.151367
0.126953
0.122070
0.092773
0.119629
0.153809
0.163574
0.190430
0.158691
0.151367
0.136719
0.117188
0.129395
0.080566
0.102539
0.134277
0.153809
0.185547
0.139160
0.131836
0.117188
0.092773
0.107422
0.061035
0.087891
0.117188
0.136719
0.163574
0.122070
0.114746
0.097656
0.080566
0.087891
0.048828
0.068359
0.100098
0.122070
0.146484
0.112305
0.109863
0.085449
0.070801
0.070801
0.039062
0.061035
0.087891
0.109863
0.126953
0.104980
0.092773
0.070801
0.053711
0.046387
0.034180
0.048828
0.078125
0.100098
0.107422
0.107422
0.085449
0.061035
0.048828
0.039062
0.048828
0.041504
0.068359
0.092773
0.097656
0.126953
0.083008
0.065918
0.051270
0.041504
0.068359
0.046387
0.073242
0.097656
0.109863
0.141602
0.085449
0.061035
0.046387
0.036621
0.068359
0.039062
0.070801
0.092773
0.097656
0.126953
0.068359
0.046387
0.034180
0.034180
0.075684
0.063477
0.109863
0.156250
0.190430
0.239258
0.217285
0.219727
0.222168
0.239258
0.280762
0.285645
0.334473
0.375977
0.419922
0.468750
0.458984
0.463867
0.471191
0.495605
0.532227
0.549316
0.585938
0.610352
0.627441
0.637207
0.612793
0.563965
0.520020
0.490723
0.468750
0.458984
0.429688
0.415039
0.393066
0.361328
0.332031
0.241699
0.190430
0.151367
0.126953
0.146484
0.109863
0.107422
0.104980
0.100098
0.107422
0.021973
-0.012207
-0.029297
-0.034180
0.004883
-0.026855
-0.012207
-0.002441
0.002441
0.019531
-0.056152
-0.080566
-0.087891
-0.083008
-0.039062
-0.063477
-0.053711
-0.039062
-0.026855
-0.009766
-0.073242
-0.095215
-0.100098
-0.095215
-0.065918
-0.095215
-0.090332
-0.080566
-0.051270
-0.014648
-0.029297
0.014648
0.097656
0.236816
0.427246
0.625000
0.883789
1.184082
1.525879
1.872559
2.160645
2.395020
2.541504
2.592773
2.543945
2.402344
2.158203
1.860352
1.547852
1.220703
0.908203
0.595703
0.363770
0.195312
0.080566
0.039062
-0.026855
-0.029297
-0.012207
-0.002441
0.021973
-0.021973
-0.002441
0.036621
0.087891
0.166016
0.156250
0.183105
0.217285
0.227051
0.246582
0.178223
0.178223
0.200195
0.234375
0.300293
0.270996
0.288086
0.310059
0.312500
0.317383
0.253906
0.249023
0.270996
0.300293
0.354004
0.334473
0.349121
0.366211
0.373535
0.371094
0.314941
0.310059
0.324707
0.361328
0.407715
0.397949
0.412598
0.432129
0.444336
0.439453
0.402832
0.393066
0.405273
0.449219
0.490723
0.512695
0.520020
0.541992
0.561523
0.556641
0.546875
0.527344
0.546875
0.590820
0.627441
0.671387
0.661621
0.686035
0.705566
0.698242
0.717773
0.681152
0.708008
0.756836
0.808105
0.871582
0.852051
0.883789
0.910645
0.915527
0.947266
0.917969
0.954590
1.018066
1.081543
1.159668
1.152344
1.193848
1.232910
1.252441
1.291504
1.267090
1.311035
1.381836
1.447754
1.518555
1.518555
1.560059
1.591797
1.608887
1.635742
1.618652
1.650391
1.704102
1.765137
1.818848
1.809082
1.831055
1.835938
1.828613
1.806641
1.752930
1.735840
1.730957
1.733398
1.711426
1.655273
1.596680
1.525879
1.447754
1.354980
1.264648
1.184082
1.132812
1.098633
1.042480
0.983887
0.898438
0.830078
0.754395
0.671387
0.627441
0.544434
0.522461
0.512695
0.490723
0.485840
0.412598
0.378418
0.336914
0.288086
0.280762
0.214844
0.219727
0.239258
0.241699
0.263672
0.209961
0.192871
0.168457
0.141602
0.148926
0.097656
0.114746
0.144043
0.158691
0.185547
0.141602
0.134277
0.117188
0.097656
0.100098
0.065918
0.083008
0.109863
0.129395
0.148926
0.114746
0.112305
0.090332
0.080566
0.078125
0.051270
0.078125
0.109863
0.139160
0.156250
0.141602
0.134277
0.114746
0.107422
0.100098
0.095215
0.107422
0.136719
0.168457
0.178223
0.187988
0.166016
0.146484
0.134277
0.124512
0.144043
0.139160
0.166016
0.187988
0.192871
0.222168
0.175781
0.158691
0.146484
0.134277
0.161133
0.134277
0.163574
0.185547
0.195312
0.231934
0.180664
0.156250
0.139160
0.126953
0.156250
0.126953
0.153809
0.178223
0.187988
0.217285
0.163574
0.141602
0.126953
0.119629
0.144043
0.124512
0.148926
0.170898
0.183105
0.202637
0.156250
0.134277
0.109863
0.109863
0.119629
0.102539
0.129395
0.144043
0.158691
0.173340
0.136719
0.114746
0.087891
0.080566
0.083008
0.080566
0.092773
0.102539
0.117188
0.122070
0.107422
0.065918
0.039062
0.031738
0.031738
0.053711
0.056152
0.068359
0.080566
0.085449
0.097656
0.039062
0.019531
0.014648
0.021973
0.063477
0.046387
0.063477
0.080566
0.090332
0.109863
0.041504
0.019531
0.012207
0.021973
0.070801
0.048828
0.065918
0.083008
0.095215
0.109863
0.031738
0.002441
-0.004883
0.000000
0.041504
0.019531
0.036621
0.048828
0.058594
0.070801
0.007324
-0.014648
-0.019531
-0.002441
0.031738
0.019531
0.036621
0.043945
0.061035
0.065918
0.007324
-0.012207
-0.029297
-0.014648
0.012207
0.012207
0.019531
0.029297
0.046387
0.046387
0.007324
-0.029297
-0.046387
-0.034180
-0.017090
0.007324
0.007324
0.012207
0.024414
0.019531
0.007324
-0.046387
-0.058594
-0.043945
-0.021973
0.024414
-0.002441
0.007324
0.019531
0.017090
0.029297
-0.031738
-0.024414
0.004883
0.051270
0.131836
0.124512
0.156250
0.192871
0.212402
0.234375
0.178223
0.187988
0.222168
0.270996
0.346680
0.339355
0.375977
0.412598
0.437012
0.456543
0.412598
0.419922
0.444336
0.480957
0.527344
0.495605
0.493164
0.483398
0.456543
0.412598
0.319824
0.275879
0.241699
0.234375
0.231934
0.175781
0.146484
0.117188
0.090332
0.048828
-0.021973
-0.065918
-0.078125
-0.061035
-0.046387
-0.048828
-0.065918
-0.068359
-0.075684
-0.107422
-0.134277
-0.178223
-0.180664
-0.158691
-0.134277
-0.107422
-0.141602
-0.134277
-0.134277
-0.158691
-0.158691
-0.214844
-0.205078
-0.178223
-0.146484
-0.102539
-0.144043
-0.136719
-0.139160
-0.163574
-0.170898
-0.251465
-0.263672
-0.239258
-0.205078
-0.136719
-0.139160
-0.065918
0.024414
0.126953
0.280762
0.410156
0.646973
0.952148
1.301270
1.682129
1.975098
2.250977
2.419434
2.446289
2.375488
2.172852
1.945801
1.677246
1.389160
1.098633
0.776367
0.520020
0.290527
0.097656
-0.053711
-0.180664
-0.227051
-0.224609
-0.185547
-0.153809
-0.136719
-0.114746
-0.087891
-0.073242
-0.065918
-0.053711
-0.043945
-0.002441
0.048828
0.083008
0.114746
0.102539
0.107422
0.104980
0.090332
0.109863
0.080566
0.114746
0.153809
0.178223
0.219727
0.187988
0.192871
0.187988
0.175781
0.202637
0.163574
0.195312
0.236816
0.261230
0.302734
0.266113
0.273438
0.268555
0.256348
0.278320
0.244141
0.275879
0.319824
0.349121
0.390625
0.361328
0.363770
0.358887
0.351562
0.366211
0.341797
0.373535
0.422363
0.454102
0.488281
0.473633
0.483398
0.476074
0.480957
0.495605
0.488281
0.527344
0.573730
0.620117
0.651855
0.659180
0.664062
0.664062
0.671387
0.681152
0.695801
0.725098
0.771484
0.820312
0.852051
0.893555
0.891113
0.898438
0.915527
0.932617
0.983887
1.003418
1.064453
1.118164
1.157227
1.220703
1.203613
1.220703
1.242676
1.267090
1.337891
1.342773
1.406250
1.462402
1.503906
1.569824
1.542969
1.550293
1.567383
1.582031
1.638184
1.628418
1.669922
1.701660
1.713867
1.740723
1.672363
1.630859
1.584473
1.542969
1.525879
1.457520
1.430664
1.396484
1.347656
1.303711
1.193848
1.105957
1.018066
0.947266
0.895996
0.820312
0.778809
0.729980
0.688477
0.646973
0.559082
0.483398
0.415039
0.371094
0.336914
0.307617
0.288086
0.273438
0.261230
0.241699
0.212402
0.148926
0.107422
0.090332
0.083008
0.104980
0.090332
0.092773
0.102539
0.092773
0.100098
0.031738
0.007324
0.000000
0.002441
0.048828
0.029297
0.043945
0.056152
0.063477
0.083008
0.009766
-0.009766
-0.012207
-0.007324
0.041504
0.019531
0.039062
0.056152
0.065918
0.090332
0.019531
-0.002441
-0.007324
0.004883
0.048828
0.031738
0.048828
0.063477
0.078125
0.087891
0.029297
0.009766
0.004883
0.017090
0.051270
0.046387
0.061035
0.070801
0.090332
0.097656
0.043945
0.021973
0.009766
0.029297
0.056152
0.061035
0.065918
0.070801
0.085449
0.080566
0.048828
0.007324
-0.009766
0.002441
0.024414
0.053711
0.041504
0.048828
0.065918
0.058594
0.051270
-0.007324
-0.017090
-0.007324
0.014648
0.063477
0.034180
0.041504
0.053711
0.046387
0.043945
-0.029297
-0.043945
-0.034180
-0.017090
0.031738
-0.004883
0.002441
0.017090
0.012207
0.014648
-0.053711
-0.065918
-0.053711
-0.029297
0.021973
-0.014648
-0.004883
0.007324
0.009766
0.007324
-0.056152
-0.070801
-0.061035
-0.034180
0.007324
-0.017090
-0.012207
-0.007324
-0.007324
-0.021973
-0.078125
-0.090332
-0.083008
-0.051270
-0.021973
-0.036621
-0.036621
-0.029297
-0.024414
-0.043945
-0.083008
-0.107422
-0.104980
-0.075684
-0.051270
-0.039062
-0.051270
-0.048828
-0.043945
-0.068359
-0.083008
-0.124512
-0.117188
-0.087891
-0.065918
-0.031738
-0.063477
-0.056152
-0.056152
-0.078125
-0.078125
-0.139160
-0.134277
-0.104980
-0.075684
-0.039062
-0.083008
-0.073242
-0.075684
-0.100098
-0.097656
-0.158691
-0.156250
-0.124512
-0.095215
-0.056152
-0.100098
-0.092773
-0.090332
-0.102539
-0.107422
-0.166016
-0.163574
-0.141602
-0.114746
-0.087891
-0.122070
-0.114746
-0.117188
-0.124512
-0.124512
-0.158691
-0.131836
-0.085449
-0.024414
0.024414
0.019531
0.048828
0.063477
0.070801
0.075684
0.068359
0.092773
0.136719
0.200195
0.244141
0.270996
0.290527
0.310059
0.324707
0.329590
0.344238
0.351562
0.390625
0.434570
0.451660
0.468750
0.429688
0.400391
0.354004
0.300293
0.280762
0.205078
0.190430
0.185547
0.163574
0.153809
0.070801
0.029297
-0.019531
-0.070801
-0.083008
-0.148926
-0.144043
-0.129395
-0.131836
-0.117188
-0.170898
-0.190430
-0.212402
-0.236816
-0.234375
-0.285645
-0.270996
-0.244141
-0.231934
-0.209961
-0.253906
-0.263672
-0.285645
-0.302734
-0.302734
-0.336914
-0.314941
-0.283203
-0.261230
-0.241699
-0.266113
-0.273438
-0.295410
-0.314941
-0.329590
-0.368652
-0.361328
-0.341797
-0.312500
-0.278320
-0.246582
-0.202637
-0.139160
-0.039062
0.097656
0.273438
0.488281
0.769043
1.091309
1.428223
1.757812
1.977539
2.111816
2.131348
2.053223
1.923828
1.677246
1.420898
1.130371
0.839844
0.588379
0.283203
0.046387
-0.144043
-0.288086
-0.349121
-0.427246
-0.412598
-0.388184
-0.361328
-0.302734
-0.327148
-0.314941
-0.292969
-0.268555
-0.202637
-0.207520
-0.158691
-0.117188
-0.085449
-0.041504
-0.080566
-0.087891
-0.092773
-0.090332
-0.056152
-0.063477
-0.026855
0.002441
0.026855
0.056152
0.017090
0.002441
-0.009766
-0.004883
0.017090
0.017090
0.053711
0.078125
0.102539
0.124512
0.104980
0.083008
0.068359
0.073242
0.097656
0.117188
0.136719
0.161133
0.185547
0.205078
0.209961
0.175781
0.168457
0.175781
0.195312
0.244141
0.251465
0.280762
0.307617
0.329590
0.361328
0.305176
0.300293
0.312500
0.336914
0.405273
0.400391
0.437012
0.468750
0.495605
0.532227
0.480957
0.480957
0.498047
0.524902
0.598145
0.593262
0.627441
0.666504
0.703125
0.754395
0.710449
0.722656
0.751953
0.795898
0.871582
0.888672
0.937500
0.981445
1.027832
1.071777
1.044922
1.059570
1.088867
1.142578
1.210938
1.240234
1.291504
1.340332
1.386719
1.420898
1.403809
1.408691
1.425781
1.469727
1.520996
1.550293
1.567383
1.582031
1.601562
1.589355
1.550293
1.489258
1.447754
1.425781
1.403809
1.384277
1.313477
1.257324
1.206055
1.130371
1.062012
0.927734
0.849609
0.793457
0.749512
0.737305
0.639648
0.588379
0.541992
0.478516
0.427246
0.302734
0.244141
0.212402
0.195312
0.209961
0.134277
0.109863
0.090332
0.058594
0.036621
-0.053711
-0.083008
-0.085449
-0.078125
-0.046387
-0.092773
-0.095215
-0.087891
-0.095215
-0.102539
-0.170898
-0.187988
-0.180664
-0.156250
-0.124512
-0.151367
-0.144043
-0.136719
-0.139160
-0.153809
-0.207520
-0.219727
-0.214844
-0.185547
-0.158691
-0.163574
-0.166016
-0.161133
-0.158691
-0.178223
-0.209961
-0.236816
-0.224609
-0.195312
-0.166016
-0.148926
-0.161133
-0.151367
-0.148926
-0.173340
-0.178223
-0.219727
-0.207520
-0.170898
-0.144043
-0.102539
-0.136719
-0.124512
-0.122070
-0.146484
-0.144043
-0.207520
-0.197754
-0.166016
-0.131836
-0.087891
-0.126953
-0.112305
-0.109863
-0.124512
-0.114746
-0.168457
-0.156250
-0.119629
-0.087891
-0.051270
-0.092773
-0.085449
-0.087891
-0.104980
-0.107422
-0.161133
-0.158691
-0.131836
-0.100098
-0.073242
-0.104980
-0.097656
-0.100098
-0.114746
-0.124512
-0.168457
-0.161133
-0.136719
-0.100098
-0.078125
-0.095215
-0.097656
-0.107422
-0.124512
-0.141602
-0.168457
-0.173340
-0.148926
-0.112305
-0.095215
-0.090332
-0.102539
-0.109863
-0.124512
-0.141602
-0.141602
-0.163574
-0.139160
-0.104980
-0.095215
-0.068359
-0.100098
-0.104980
-0.122070
-0.148926
-0.139160
-0.183105
-0.163574
-0.134277
-0.122070
-0.090332
-0.134277
-0.144043
-0.158691
-0.175781
-0.158691
-0.197754
-0.173340
-0.139160
-0.126953
-0.097656
-0.144043
-0.153809
-0.168457
-0.183105
-0.168457
-0.205078
-0.180664
-0.148926
-0.131836
-0.107422
-0.144043
-0.151367
-0.170898
-0.183105
-0.185547
-0.217285
-0.192871
-0.166016
-0.144043
-0.129395
-0.148926
-0.158691
-0.183105
-0.195312
-0.197754
-0.212402
-0.187988
-0.153809
-0.114746
-0.092773
-0.078125
-0.078125
-0.080566
-0.075684
-0.063477
-0.031738
-0.007324
0.039062
0.083008
0.112305
0.158691
0.146484
0.156250
0.173340
0.190430
0.246582
0.256348
0.314941
0.363770
0.395508
0.449219
0.405273
0.388184
0.371094
0.354004
0.368652
0.317383
0.319824
0.310059
0.288086
0.283203
0.185547
0.122070
0.068359
0.026855
0.026855
-0.024414
-0.026855
-0.031738
-0.039062
-0.029297
-0.097656
-0.136719
-0.170898
-0.185547
-0.180664
-0.207520
-0.190430
-0.183105
-0.173340
-0.161133
-0.207520
-0.234375
-0.266113
-0.273438
-0.263672
-0.270996
-0.246582
-0.234375
-0.212402
-0.200195
-0.224609
-0.253906
-0.275879
-0.275879
-0.266113
-0.244141
-0.234375
-0.231934
-0.229492
-0.234375
-0.239258
-0.285645
-0.288086
-0.256348
-0.197754
-0.083008
0.007324
0.158691
0.344238
0.563965
0.834961
1.062012
1.367188
1.706543
2.021484
2.287598
2.358398
2.358398
2.275391
2.121582
1.914062
1.582031
1.286621
1.005859
0.751953
0.554199
0.322266
0.156250
0.021973
-0.080566
-0.146484
-0.270996
-0.314941
-0.319824
-0.290527
-0.227051
-0.214844
-0.170898
-0.124512
-0.073242
-0.034180
-0.063477
-0.048828
-0.034180
0.004883
0.053711
0.068359
0.095215
0.117188
0.146484
0.156250
0.119629
0.102539
0.100098
0.126953
0.161133
0.187988
0.197754
0.214844
0.239258
0.239258
0.227051
0.190430
0.185547
0.209961
0.241699
0.288086
0.280762
0.297852
0.322266
0.322266
0.332031
0.278320
0.280762
0.302734
0.334473
0.402832
0.375977
0.397949
0.422363
0.429688
0.441895
0.383301
0.388184
0.417480
0.458984
0.527344
0.505371
0.532227
0.559082
0.571289
0.588379
0.539551
0.549316
0.583496
0.632324
0.703125
0.688477
0.717773
0.751953
0.773926
0.791016
0.754395
0.776367
0.812988
0.874023
0.942383
0.952148
0.993652
1.035156
1.066895
1.088867
1.069336
1.088867
1.127930
1.193848
1.257324
1.284180
1.315918
1.354980
1.389160
1.401367
1.408691
1.413574
1.452637
1.511230
1.569824
1.611328
1.613770
1.638184
1.652832
1.640625
1.643066
1.594238
1.599121
1.613770
1.621094
1.630859
1.557617
1.525879
1.477051
1.406250
1.354980
1.230469
1.174316
1.140137
1.103516
1.076660
0.969238
0.915527
0.852051
0.771484
0.712891
0.600586
0.556641
0.539551
0.522461
0.520020
0.434570
0.402832
0.363770
0.312500
0.278320
0.195312
0.178223
0.183105
0.195312
0.200195
0.156250
0.151367
0.134277
0.109863
0.090332
0.043945
0.043945
0.063477
0.097656
0.112305
0.092773
0.087891
0.080566
0.061035
0.036621
0.012207
0.000000
0.021973
0.053711
0.068359
0.075684
0.056152
0.048828
0.036621
0.014648
0.021973
0.002441
0.034180
0.068359
0.083008
0.112305
0.083008
0.078125
0.063477
0.043945
0.065918
0.019531
0.046387
0.080566
0.097656
0.131836
0.092773
0.092773
0.080566
0.063477
0.078125
0.039062
0.063477
0.100098
0.117188
0.151367
0.107422
0.100098
0.085449
0.070801
0.087891
0.051270
0.075684
0.109863
0.126953
0.148926
0.112305
0.104980
0.087891
0.073242
0.078125
0.051270
0.078125
0.107422
0.131836
0.148926
0.126953
0.117188
0.100098
0.085449
0.080566
0.068359
0.083008
0.107422
0.129395
0.134277
0.136719
0.104980
0.080566
0.063477
0.051270
0.063477
0.058594
0.083008
0.102539
0.104980
0.126953
0.080566
0.056152
0.039062
0.029297
0.065918
0.041504
0.068359
0.087891
0.095215
0.131836
0.068359
0.046387
0.031738
0.019531
0.051270
0.024414
0.051270
0.070801
0.078125
0.109863
0.051270
0.024414
0.007324
-0.002441
0.029297
0.007324
0.036621
0.061035
0.070801
0.097656
0.041504
0.017090
0.000000
-0.002441
0.017090
0.004883
0.031738
0.046387
0.065918
0.083008
0.046387
0.024414
0.004883
0.002441
0.014648
0.014648
0.036621
0.056152
0.078125
0.090332
0.070801
0.031738
0.007324
0.002441
0.007324
0.031738
0.036621
0.051270
0.070801
0.078125
0.083008
0.029297
0.009766
0.014648
0.031738
0.090332
0.092773
0.129395
0.166016
0.197754
0.239258
0.187988
0.185547
0.205078
0.231934
0.302734
0.300293
0.341797
0.385742
0.424805
0.468750
0.429688
0.437012
0.463867
0.498047
0.568848
0.566406
0.588379
0.610352
0.617676
0.617676
0.529785
0.483398
0.449219
0.429688
0.434570
0.383301
0.361328
0.334473
0.314941
0.280762
0.187988
0.136719
0.100098
0.092773
0.097656
0.078125
0.073242
0.065918
0.070801
0.053711
0.004883
-0.036621
-0.056152
-0.051270
-0.034180
-0.021973
-0.029297
-0.024414
-0.012207
-0.026855
-0.048828
-0.102539
-0.112305
-0.100098
-0.083008
-0.039062
-0.061035
-0.051270
-0.036621
-0.041504
-0.039062
-0.102539
-0.114746
-0.109863
-0.102539
-0.061035
-0.107422
-0.090332
-0.053711
-0.019531
0.043945
0.058594
0.158691
0.322266
0.532227
0.808105
1.042480
1.359863
1.711426
2.033691
2.307129
2.412109
2.458496
2.421875
2.324219
2.175293
1.894531
1.616211
1.333008
1.047363
0.771484
0.473633
0.270996
0.119629
0.031738
-0.021973
-0.090332
-0.102539
-0.095215
-0.078125
-0.073242
-0.090332
-0.068359
-0.034180
0.034180
0.092773
0.119629
0.139160
0.166016
0.185547
0.178223
0.168457
0.148926
0.166016
0.207520
0.244141
0.280762
0.270996
0.283203
0.290527
0.273438
0.280762
0.241699
0.261230
0.302734
0.339355
0.385742
0.351562
0.368652
0.375977
0.361328
0.378418
0.327148
0.346680
0.390625
0.432129
0.485840
0.456543
0.476074
0.488281
0.483398
0.493164
0.449219
0.466309
0.510254
0.554199
0.605469
0.581055
0.603027
0.612793
0.610352
0.622559
0.585938
0.610352
0.651855
0.703125
0.742188
0.729980
0.751953
0.764160
0.769043
0.773926
0.756836
0.786133
0.827637
0.883789
0.927734
0.942383
0.966797
0.983887
1.000977
1.013184
1.025391
1.047363
1.103516
1.169434
1.215820
1.262207
1.279297
1.306152
1.323242
1.335449
1.379395
1.384277
1.442871
1.513672
1.562500
1.623535
1.616211
1.640625
1.657715
1.665039
1.713867
1.694336
1.740723
1.796875
1.826172
1.870117
1.828613
1.821289
1.799316
1.765137
1.755371
1.684570
1.674805
1.667480
1.635742
1.608887
1.511230
1.442871
1.354980
1.269531
1.213379
1.108398
1.066895
1.032715
0.991211
0.952148
0.859375
0.795898
0.725098
0.659180
0.612793
0.544434
0.527344
0.515137
0.500488
0.485840
0.437012
0.397949
0.349121
0.317383
0.297852
0.270996
0.266113
0.278320
0.290527
0.288086
0.288086
0.253906
0.222168
0.200195
0.180664
0.195312
0.178223
0.197754
0.217285
0.224609
0.249023
0.202637
0.185547
0.173340
0.163574
0.195312
0.170898
0.200195
0.217285
0.224609
0.258789
0.197754
0.173340
0.161133
0.156250
0.192871
0.170898
0.202637
0.227051
0.241699
0.275879
0.222168
0.207520
0.192871
0.190430
0.219727
0.202637
0.231934
0.251465
0.268555
0.300293
0.251465
0.231934
0.214844
0.214844
0.229492
0.217285
0.244141
0.258789
0.278320
0.292969
0.256348
0.231934
0.209961
0.212402
0.229492
0.234375
0.258789
0.275879
0.297852
0.310059
0.295410
0.256348
0.236816
0.229492
0.234375
0.261230
0.258789
0.270996
0.288086
0.292969
0.302734
0.244141
0.222168
0.219727
0.224609
0.266113
0.249023
0.266113
0.275879
0.280762
0.297852
0.222168
0.202637
0.197754
0.205078
0.256348
0.227051
0.239258
0.253906
0.258789
0.270996
0.197754
0.175781
0.170898
0.178223
0.222168
0.202637
0.214844
0.227051
0.239258
0.253906
0.183105
0.156250
0.148926
0.166016
0.205078
0.192871
0.209961
0.224609
0.239258
0.239258
0.180664
0.158691
0.148926
0.166016
0.195312
0.197754
0.205078
0.212402
0.229492
0.222168
0.183105
0.148926
0.141602
0.153809
0.175781
0.200195
0.195312
0.205078
0.222168
0.212402
0.207520
0.156250
0.146484
0.161133
0.180664
0.227051
0.202637
0.212402
0.224609
0.214844
0.217285
0.151367
0.144043
0.158691
0.183105
0.244141
0.205078
0.212402
0.227051
0.219727
0.224609
0.151367
0.141602
0.158691
0.180664
0.229492
0.197754
0.207520
0.224609
0.222168
0.224609
0.163574
0.161133
0.187988
0.236816
0.307617
0.302734
0.339355
0.375977
0.397949
0.407715
0.368652
0.380859
0.410156
0.466309
0.524902
0.539551
0.571289
0.603027
0.629883
0.639648
0.622559
0.627441
0.654297
0.700684
0.737305
0.742188
0.727539
0.720215
0.703125
0.656738
0.615234
0.541992
0.510254
0.505371
0.490723
0.483398
0.417480
0.390625
0.361328
0.307617
0.280762
0.202637
0.190430
0.200195
0.207520
0.239258
0.183105
0.180664
0.170898
0.139160
0.134277
0.063477
0.063477
0.090332
0.107422
0.141602
0.092773
0.095215
0.092773
0.068359
0.068359
0.012207
0.014648
0.043945
0.073242
0.104980
0.065918
0.070801
0.065918
0.043945
0.026855
-0.036621
-0.041504
-0.024414
0.017090
0.058594
0.070801
0.126953
0.197754
0.285645
0.400391
0.529785
0.727539
0.993652
1.315918
1.655273
1.984863
2.290039
2.514648
2.619629
2.597656
2.485352
2.275391
2.026367
1.743164
1.428223
1.142578
0.839844
0.593262
0.378418
0.195312
0.092773
-0.004883
-0.009766
0.019531
0.048828
0.102539
0.095215
0.122070
0.139160
0.153809
0.202637
0.180664
0.229492
0.285645
0.317383
0.366211
0.332031
0.336914
0.334473
0.322266
0.344238
0.314941
0.346680
0.388184
0.412598
0.449219
0.419922
0.417480
0.407715
0.400391
0.412598
0.385742
0.415039
0.451660
0.485840
0.512695
0.495605
0.498047
0.485840
0.480957
0.485840
0.473633
0.502930
0.539551
0.578613
0.598145
0.595703
0.593262
0.581055
0.581055
0.583496
0.595703
0.615234
0.654297
0.686035
0.708008
0.734863
0.715332
0.708008
0.712891
0.712891
0.751953
0.756836
0.800781
0.842285
0.869141
0.915527
0.891113
0.888672
0.895996
0.910645
0.966797
0.961914
1.015625
1.062012
1.096191
1.157227
1.125488
1.132812
1.149902
1.169434
1.232910
1.240234
1.303711
1.359863
1.406250
1.469727
1.450195
1.462402
1.479492
1.513672
1.569824
1.584473
1.647949
1.701660
1.748047
1.804199
1.787109
1.799316
1.804199
1.831055
1.870117
1.877441
1.921387
1.948242
1.972656
1.984863
1.943359
1.896973
1.845703
1.811523
1.779785
1.740723
1.708984
1.662598
1.621094
1.564941
1.489258
1.376953
1.284180
1.213379
1.149902
1.115723
1.044922
0.998535
0.952148
0.900879
0.856934
0.747070
0.676270
0.627441
0.590820
0.598145
0.541992
0.524902
0.510254
0.495605
0.490723
0.397949
0.358887
0.341797
0.339355
0.378418
0.346680
0.356445
0.363770
0.366211
0.375977
0.297852
0.270996
0.261230
0.270996
0.307617
0.290527
0.297852
0.310059
0.317383
0.324707
0.258789
0.236816
0.224609
0.239258
0.278320
0.268555
0.288086
0.300293
0.319824
0.324707
0.275879
0.253906
0.249023
0.266113
0.295410
0.305176
0.314941
0.319824
0.339355
0.336914
0.310059
0.278320
0.270996
0.290527
0.322266
0.354004
0.344238
0.354004
0.368652
0.361328
0.356445
0.302734
0.295410
0.312500
0.336914
0.383301
0.356445
0.366211
0.380859
0.380859
0.380859
0.310059
0.300293
0.312500
0.336914
0.393066
0.356445
0.368652
0.383301
0.375977
0.378418
0.302734
0.292969
0.305176
0.334473
0.383301
0.351562
0.358887
0.371094
0.366211
0.361328
0.295410
0.285645
0.292969
0.319824
0.361328
0.332031
0.339355
0.346680
0.349121
0.334473
0.273438
0.258789
0.263672
0.295410
0.327148
0.312500
0.310059
0.307617
0.307617
0.285645
0.249023
0.227051
0.231934
0.263672
0.295410
0.302734
0.288086
0.292969
0.288086
0.261230
0.246582
0.202637
0.209961
0.234375
0.258789
0.288086
0.253906
0.258789
0.258789
0.236816
0.236816
0.175781
0.180664
0.209961
0.234375
0.275879
0.231934
0.246582
0.246582
0.224609
0.229492
0.168457
0.175781
0.202637
0.231934
0.270996
0.227051
0.234375
0.231934
0.212402
0.209961
0.156250
0.161133
0.187988
0.217285
0.246582
0.212402
0.217285
0.209961
0.195312
0.190430
0.139160
0.151367
0.175781
0.207520
0.231934
0.212402
0.222168
0.222168
0.207520
0.192871
0.161133
0.158691
0.180664
0.214844
0.231934
0.229492
0.222168
0.209961
0.192871
0.170898
0.166016
0.148926
0.180664
0.222168
0.246582
0.290527
0.285645
0.305176
0.317383
0.322266
0.358887
0.341797
0.388184
0.441895
0.476074
0.532227
0.512695
0.532227
0.539551
0.544434
0.588379
0.563965
0.612793
0.668945
0.705566
0.759277
0.722656
0.720215
0.700684
0.671387
0.668945
0.605469
0.603027
0.607910
0.590820
0.581055
0.507812
0.458984
0.402832
0.351562
0.322266
0.251465
0.244141
0.241699
0.239258
0.231934
0.178223
0.151367
0.114746
0.083008
0.061035
0.029297
0.036621
0.051270
0.068359
0.073242
0.061035
0.034180
0.007324
-0.009766
-0.019531
-0.017090
-0.014648
0.014648
0.036621
0.041504
0.058594
0.019531
-0.002441
-0.019531
-0.029297
-0.004883
-0.031738
-0.014648
-0.009766
-0.014648
0.007324
-0.043945
-0.048828
-0.026855
0.017090
0.126953
0.200195
0.361328
0.546875
0.756836
1.040039
1.269531
1.579590
1.904297
2.194824
2.441406
2.507324
2.507324
2.404785
2.197266
1.936035
1.557617
1.213379
0.895996
0.622559
0.417480
0.212402
0.092773
0.012207
-0.024414
-0.024414
-0.068359
-0.073242
-0.068359
-0.043945
0.002441
0.029297
0.087891
0.126953
0.168457
0.202637
0.197754
0.185547
0.180664
0.197754
0.219727
0.244141
0.266113
0.288086
0.312500
0.324707
0.324707
0.288086
0.273438
0.278320
0.292969
0.344238
0.339355
0.361328
0.383301
0.397949
0.419922
0.361328
0.349121
0.356445
0.366211
0.422363
0.410156
0.434570
0.461426
0.480957
0.512695
0.449219
0.437012
0.444336
0.461426
0.520020
0.505371
0.532227
0.566406
0.588379
0.617676
0.559082
0.551758
0.559082
0.583496
0.642090
0.646973
0.676270
0.708008
0.737305
0.759277
0.712891
0.710449
0.722656
0.756836
0.808105
0.822754
0.861816
0.893555
0.932617
0.954590
0.935059
0.932617
0.947266
0.993652
1.047363
1.091309
1.125488
1.162109
1.215820
1.237793
1.247559
1.242676
1.267090
1.318359
1.379395
1.452637
1.477051
1.523438
1.574707
1.599121
1.630859
1.604004
1.628418
1.677246
1.730957
1.809082
1.804199
1.835938
1.872559
1.879883
1.894531
1.831055
1.816406
1.818848
1.826172
1.857910
1.787109
1.755371
1.726074
1.669922
1.611328
1.474609
1.398926
1.347656
1.306152
1.286621
1.191406
1.130371
1.076660
1.008301
0.937500
0.815430
0.747070
0.703125
0.686035
0.673828
0.603027
0.566406
0.534668
0.498047
0.451660
0.368652
0.329590
0.312500
0.322266
0.332031
0.307617
0.292969
0.285645
0.275879
0.241699
0.200195
0.163574
0.161133
0.185547
0.205078
0.214844
0.197754
0.197754
0.192871
0.166016
0.156250
0.109863
0.119629
0.153809
0.180664
0.212402
0.178223
0.185547
0.183105
0.163574
0.168457
0.112305
0.119629
0.153809
0.185547
0.227051
0.185547
0.195312
0.197754
0.180664
0.185547
0.124512
0.134277
0.166016
0.195312
0.229492
0.190430
0.195312
0.195312
0.178223
0.178223
0.126953
0.136719
0.168457
0.207520
0.236816
0.207520
0.219727
0.214844
0.202637
0.190430
0.144043
0.153809
0.175781
0.212402
0.231934
0.212402
0.217285
0.209961
0.197754
0.178223
0.148926
0.144043
0.161133
0.197754
0.209961
0.209961
0.197754
0.185547
0.168457
0.148926
0.146484
0.124512
0.146484
0.180664
0.192871
0.217285
0.180664
0.173340
0.153809
0.129395
0.139160
0.097656
0.119629
0.146484
0.156250
0.185547
0.139160
0.131836
0.117188
0.102539
0.117188
0.070801
0.097656
0.129395
0.146484
0.180664
0.139160
0.134277
0.117188
0.100098
0.112305
0.070801
0.092773
0.122070
0.136719
0.158691
0.122070
0.109863
0.087891
0.070801
0.070801
0.041504
0.070801
0.095215
0.119629
0.136719
0.112305
0.102539
0.080566
0.068359
0.065918
0.048828
0.063477
0.087891
0.107422
0.114746
0.109863
0.087891
0.061035
0.046387
0.036621
0.043945
0.041504
0.065918
0.083008
0.090332
0.107422
0.063477
0.039062
0.024414
0.012207
0.041504
0.019531
0.051270
0.068359
0.075684
0.107422
0.051270
0.031738
0.019531
0.012207
0.046387
0.019531
0.043945
0.065918
0.075684
0.109863
0.048828
0.031738
0.014648
0.009766
0.041504
0.017090
0.043945
0.061035
0.073242
0.100098
0.046387
0.021973
0.002441
0.000000
0.021973
0.004883
0.034180
0.046387
0.058594
0.075684
0.031738
0.009766
-0.004883
0.004883
0.039062
0.048828
0.092773
0.134277
0.178223
0.217285
0.214844
0.205078
0.207520
0.229492
0.258789
0.305176
0.339355
0.375977
0.422363
0.458984
0.483398
0.456543
0.461426
0.480957
0.505371
0.563965
0.561523
0.583496
0.593262
0.590820
0.588379
0.493164
0.441895
0.407715
0.380859
0.395508
0.334473
0.307617
0.280762
0.249023
0.229492
0.122070
0.075684
0.048828
0.036621
0.065918
0.019531
0.019531
0.021973
0.019531
0.021973
-0.058594
-0.090332
-0.102539
-0.097656
-0.063477
-0.085449
-0.080566
-0.070801
-0.063477
-0.061035
-0.122070
-0.141602
-0.148926
-0.131836
-0.095215
-0.100098
-0.087891
-0.080566
-0.061035
-0.065918
-0.114746
-0.151367
-0.170898
-0.173340
-0.166016
-0.158691
-0.156250
-0.131836
-0.080566
-0.031738
0.029297
0.090332
0.227051
0.424805
0.671387
0.981445
1.269531
1.618652
1.960449
2.229004
2.409668
2.404785
2.346191
2.224121
2.028809
1.804199
1.447754
1.145020
0.864258
0.593262
0.371094
0.112305
-0.034180
-0.109863
-0.136719
-0.100098
-0.141602
-0.119629
-0.083008
-0.063477
-0.031738
-0.073242
-0.053711
-0.012207
0.039062
0.104980
0.090332
0.114746
0.144043
0.151367
0.148926
0.095215
0.092773
0.112305
0.153809
0.200195
0.187988
0.202637
0.217285
0.227051
0.214844
0.173340
0.166016
0.180664
0.217285
0.253906
0.258789
0.263672
0.275879
0.280762
0.263672
0.251465
0.229492
0.241699
0.280762
0.314941
0.344238
0.332031
0.351562
0.361328
0.346680
0.356445
0.317383
0.339355
0.380859
0.422363
0.476074
0.451660
0.473633
0.488281
0.483398
0.502930
0.461426
0.485840
0.534668
0.573730
0.627441
0.600586
0.625000
0.639648
0.639648
0.666504
0.625000
0.656738
0.708008
0.761719
0.820312
0.805664
0.837402
0.859375
0.866699
0.888672
0.866699
0.903320
0.964355
1.027832
1.083984
1.091309
1.130371
1.154785
1.176758
1.203613
1.198730
1.245117
1.301270
1.372070
1.420898
1.437988
1.469727
1.489258
1.506348
1.513672
1.525879
1.540527
1.584473
1.638184
1.665039
1.684570
1.674805
1.660156
1.638184
1.596680
1.577148
1.520996
1.508789
1.499023
1.459961
1.437988
1.337891
1.262207
1.176758
1.086426
1.035156
0.927734
0.886230
0.859375
0.805664
0.776367
0.673828
0.610352
0.539551
0.471191
0.439453
0.356445
0.334473
0.327148
0.310059
0.310059
0.239258
0.205078
0.163574
0.126953
0.114746
0.058594
0.065918
0.080566
0.085449
0.095215
0.053711
0.034180
0.004883
-0.012207
-0.014648
-0.048828
-0.029297
-0.004883
0.017090
0.029297
0.004883
-0.009766
-0.034180
-0.046387
-0.053711
-0.061035
-0.046387
-0.017090
0.004883
0.017090
0.021973
-0.002441
-0.021973
-0.026855
-0.036621
-0.017090
-0.017090
0.012207
0.034180
0.041504
0.070801
0.024414
0.002441
-0.012207
-0.019531
0.014648
-0.007324
0.019531
0.041504
0.048828
0.083008
0.026855
0.007324
-0.004883
-0.014648
0.021973
0.000000
0.024414
0.041504
0.051270
0.083008
0.019531
-0.002441
-0.019531
-0.019531
0.007324
-0.017090
0.007324
0.021973
0.036621
0.058594
0.009766
-0.014648
-0.031738
-0.034180
-0.017090
-0.031738
-0.004883
0.004883
0.026855
0.039062
-0.007324
-0.031738
-0.053711
-0.051270
-0.031738
-0.029297
-0.007324
0.000000
0.014648
0.019531
0.000000
-0.041504
-0.063477
-0.065918
-0.058594
-0.036621
-0.034180
-0.024414
-0.012207
-0.009766
-0.009766
-0.065918
-0.090332
-0.095215
-0.092773
-0.051270
-0.078125
-0.073242
-0.065918
-0.061035
-0.051270
-0.124512
-0.144043
-0.146484
-0.136719
-0.085449
-0.104980
-0.092773
-0.078125
-0.070801
-0.056152
-0.126953
-0.146484
-0.146484
-0.134277
-0.090332
-0.119629
-0.112305
-0.100098
-0.090332
-0.083008
-0.151367
-0.170898
-0.178223
-0.163574
-0.124512
-0.134277
-0.124512
-0.112305
-0.095215
-0.095215
-0.153809
-0.173340
-0.180664
-0.158691
-0.126953
-0.129395
-0.117188
-0.114746
-0.100098
-0.107422
-0.151367
-0.183105
-0.195312
-0.178223
-0.153809
-0.131836
-0.136719
-0.124512
-0.102539
-0.109863
-0.122070
-0.163574
-0.168457
-0.151367
-0.124512
-0.078125
-0.102539
-0.090332
-0.073242
-0.080566
-0.080566
-0.148926
-0.156250
-0.139160
-0.112305
-0.061035
-0.100098
-0.087891
-0.075684
-0.083008
-0.075684
-0.141602
-0.141602
-0.112305
-0.073242
-0.004883
-0.024414
0.007324
0.041504
0.056152
0.073242
0.021973
0.031738
0.058594
0.104980
0.170898
0.163574
0.192871
0.227051
0.249023
0.263672
0.231934
0.251465
0.290527
0.346680
0.402832
0.397949
0.415039
0.422363
0.415039
0.383301
0.319824
0.283203
0.266113
0.268555
0.268555
0.231934
0.187988
0.158691
0.124512
0.068359
0.017090
-0.041504
-0.058594
-0.051270
-0.046387
-0.041504
-0.083008
-0.092773
-0.109863
-0.146484
-0.156250
-0.219727
-0.219727
-0.197754
-0.180664
-0.148926
-0.195312
-0.187988
-0.197754
-0.222168
-0.217285
-0.275879
-0.263672
-0.231934
-0.202637
-0.163574
-0.205078
-0.200195
-0.205078
-0.224609
-0.222168
-0.285645
-0.288086
-0.273438
-0.258789
-0.231934
-0.258789
-0.229492
-0.197754
-0.158691
-0.083008
-0.026855
0.122070
0.322266
0.576172
0.854492
1.125488
1.464844
1.789551
2.060547
2.236328
2.265625
2.236328
2.148438
2.009277
1.794434
1.511230
1.220703
0.927734
0.649414
0.395508
0.178223
0.002441
-0.109863
-0.175781
-0.234375
-0.256348
-0.288086
-0.292969
-0.292969
-0.288086
-0.251465
-0.246582
-0.187988
-0.122070
-0.083008
-0.021973
-0.039062
-0.026855
-0.024414
-0.026855
0.004883
-0.026855
0.004883
0.043945
0.065918
0.112305
0.073242
0.070801
0.063477
0.053711
0.083008
0.051270
0.085449
0.129395
0.148926
0.185547
0.151367
0.146484
0.136719
0.131836
0.153809
0.129395
0.161133
0.202637
0.234375
0.263672
0.241699
0.239258
0.227051
0.222168
0.227051
0.212402
0.249023
0.285645
0.319824
0.346680
0.344238
0.341797
0.332031
0.341797
0.356445
0.373535
0.402832
0.454102
0.493164
0.522461
0.549316
0.537109
0.532227
0.539551
0.551758
0.595703
0.605469
0.654297
0.693359
0.720215
0.773926
0.742188
0.747070
0.759277
0.776367
0.839844
0.842285
0.903320
0.957031
1.000977
1.071777
1.040039
1.054688
1.074219
1.103516
1.171875
1.181641
1.240234
1.293945
1.333008
1.394043
1.364746
1.367188
1.379395
1.403809
1.457520
1.459961
1.503906
1.533203
1.557617
1.586914
1.535645
1.506348
1.481934
1.459961
1.452637
1.406250
1.391602
1.354980
1.320801
1.281738
1.188965
1.103516
1.025391
0.966797
0.917969
0.859375
0.812988
0.761719
0.717773
0.666504
0.593262
0.495605
0.417480
0.368652
0.327148
0.314941
0.268555
0.241699
0.222168
0.195312
0.170898
0.083008
0.041504
0.021973
0.007324
0.039062
0.002441
0.000000
0.004883
0.002441
0.009766
-0.073242
-0.100098
-0.107422
-0.102539
-0.056152
-0.083008
-0.073242
-0.058594
-0.056152
-0.048828
-0.124512
-0.146484
-0.148926
-0.131836
-0.080566
-0.092773
-0.080566
-0.063477
-0.048828
-0.041504
-0.104980
-0.126953
-0.129395
-0.114746
-0.078125
-0.092773
-0.080566
-0.070801
-0.058594
-0.063477
-0.119629
-0.144043
-0.151367
-0.134277
-0.100098
-0.100098
-0.097656
-0.087891
-0.070801
-0.080566
-0.114746
-0.148926
-0.153809
-0.131836
-0.104980
-0.075684
-0.083008
-0.075684
-0.061035
-0.073242
-0.085449
-0.136719
-0.146484
-0.126953
-0.104980
-0.056152
-0.083008
-0.070801
-0.053711
-0.061035
-0.056152
-0.126953
-0.139160
-0.124512
-0.100098
-0.051270
-0.092773
-0.080566
-0.063477
-0.075684
-0.070801
-0.141602
-0.148926
-0.134277
-0.107422
-0.058594
-0.092773
-0.087891
-0.078125
-0.083008
-0.083008
-0.151367
-0.158691
-0.144043
-0.112305
-0.075684
-0.107422
-0.100098
-0.087891
-0.090332
-0.102539
-0.156250
-0.163574
-0.156250
-0.124512
-0.090332
-0.109863
-0.109863
-0.109863
-0.109863
-0.136719
-0.183105
-0.202637
-0.195312
-0.166016
-0.139160
-0.134277
-0.141602
-0.139160
-0.139160
-0.163574
-0.178223
-0.209961
-0.200195
-0.166016
-0.144043
-0.117188
-0.146484
-0.141602
-0.146484
-0.170898
-0.166016
-0.217285
-0.207520
-0.175781
-0.151367
-0.112305
-0.156250
-0.146484
-0.146484
-0.166016
-0.163574
-0.217285
-0.205078
-0.168457
-0.139160
-0.102539
-0.139160
-0.134277
-0.141602
-0.163574
-0.161133
-0.214844
-0.205078
-0.173340
-0.134277
-0.107422
-0.144043
-0.139160
-0.148926
-0.168457
-0.175781
-0.217285
-0.200195
-0.163574
-0.114746
-0.078125
-0.080566
-0.051270
-0.039062
-0.026855
-0.017090
-0.029297
-0.002441
0.041504
0.100098
0.139160
0.158691
0.183105
0.197754
0.212402
0.219727
0.241699
0.258789
0.312500
0.373535
0.412598
0.446777
0.432129
0.422363
0.400391
0.366211
0.358887
0.307617
0.305176
0.302734
0.278320
0.270996
0.187988
0.139160
0.090332
0.043945
0.029297
-0.039062
-0.041504
-0.031738
-0.039062
-0.026855
-0.085449
-0.112305
-0.141602
-0.170898
-0.163574
-0.212402
-0.195312
-0.170898
-0.161133
-0.139160
-0.185547
-0.202637
-0.227051
-0.246582
-0.241699
-0.273438
-0.249023
-0.222168
-0.207520
-0.190430
-0.217285
-0.227051
-0.249023
-0.258789
-0.261230
-0.288086
-0.275879
-0.263672
-0.251465
-0.239258
-0.241699
-0.231934
-0.217285
-0.166016
-0.085449
0.031738
0.185547
0.395508
0.637207
0.913086
1.225586
1.518555
1.821289
2.087402
2.253418
2.336426
2.282715
2.189941
2.023926
1.789551
1.547852
1.203613
0.900879
0.625000
0.383301
0.214844
0.019531
-0.083008
-0.161133
-0.217285
-0.214844
-0.283203
-0.292969
-0.285645
-0.266113
-0.202637
-0.195312
-0.139160
-0.090332
-0.053711
0.002441
-0.039062
-0.041504
-0.036621
-0.021973
0.021973
0.014648
0.056152
0.080566
0.104980
0.136719
0.095215
0.083008
0.073242
0.085449
0.117188
0.117188
0.148926
0.168457
0.192871
0.214844
0.185547
0.168457
0.156250
0.166016
0.187988
0.205078
0.227051
0.246582
0.273438
0.295410
0.292969
0.261230
0.249023
0.261230
0.285645
0.334473
0.344238
0.371094
0.397949
0.415039
0.437012
0.383301
0.375977
0.388184
0.412598
0.478516
0.468750
0.498047
0.534668
0.563965
0.600586
0.551758
0.563965
0.593262
0.629883
0.703125
0.703125
0.737305
0.776367
0.805664
0.844727
0.793457
0.798340
0.827637
0.874023
0.954590
0.964355
1.010742
1.057129
1.101074
1.140137
1.110840
1.127930
1.154785
1.203613
1.274414
1.291504
1.333008
1.372070
1.418457
1.442871
1.423340
1.433105
1.459961
1.508789
1.564941
1.591797
1.616211
1.638184
1.660156
1.655273
1.623535
1.574707
1.550293
1.542969
1.535645
1.530762
1.474609
1.435547
1.394043
1.323242
1.252441
1.135254
1.064453
1.018066
0.979004
0.969238
0.869141
0.812988
0.764160
0.693359
0.639648
0.512695
0.456543
0.424805
0.407715
0.419922
0.346680
0.322266
0.307617
0.270996
0.251465
0.156250
0.129395
0.131836
0.141602
0.173340
0.124512
0.117188
0.122070
0.102539
0.090332
0.017090
0.000000
0.009766
0.039062
0.078125
0.046387
0.053711
0.058594
0.053711
0.036621
-0.017090
-0.024414
-0.014648
0.017090
0.053711
0.041504
0.048828
0.056152
0.058594
0.043945
0.014648
-0.004883
0.007324
0.043945
0.070801
0.083008
0.068359
0.078125
0.075684
0.048828
0.043945
0.009766
0.024414
0.058594
0.085449
0.122070
0.087891
0.097656
0.092773
0.070801
0.083008
0.029297
0.043945
0.083008
0.107422
0.148926
0.104980
0.117188
0.114746
0.095215
0.102539
0.046387
0.056152
0.087891
0.114746
0.146484
0.107422
0.114746
0.114746
0.092773
0.100098
0.046387
0.053711
0.085449
0.117188
0.146484
0.112305
0.117188
0.104980
0.090332
0.078125
0.034180
0.043945
0.070801
0.102539
0.117188
0.095215
0.095215
0.080566
0.063477
0.046387
0.019531
0.017090
0.041504
0.073242
0.085449
0.083008
0.068359
0.051270
0.036621
0.012207
0.007324
-0.009766
0.012207
0.043945
0.053711
0.078125
0.043945
0.029297
0.009766
-0.012207
0.002441
-0.029297
-0.002441
0.031738
0.039062
0.073242
0.026855
0.014648
-0.007324
-0.029297
-0.007324
-0.046387
-0.024414
0.007324
0.021973
0.056152
0.012207
0.002441
-0.012207
-0.029297
-0.017090
-0.056152
-0.031738
-0.002441
0.012207
0.041504
0.007324
-0.007324
-0.026855
-0.041504
-0.034180
-0.061035
-0.036621
-0.007324
0.012207
0.026855
0.002441
-0.009766
-0.034180
-0.043945
-0.046387
-0.058594
-0.039062
-0.014648
0.007324
0.019531
0.009766
-0.012207
-0.036621
-0.046387
-0.056152
-0.048828
-0.046387
-0.017090
0.002441
0.009766
0.029297
-0.009766
-0.034180
-0.046387
-0.053711
-0.021973
-0.034180
-0.007324
0.014648
0.026855
0.068359
0.021973
0.019531
0.026855
0.048828
0.114746
0.117188
0.168457
0.212402
0.244141
0.295410
0.258789
0.261230
0.275879
0.300293
0.361328
0.363770
0.412598
0.454102
0.488281
0.537109
0.500488
0.493164
0.485840
0.488281
0.510254
0.483398
0.493164
0.485840
0.478516
0.463867
0.385742
0.332031
0.280762
0.249023
0.231934
0.190430
0.180664
0.156250
0.139160
0.122070
0.063477
0.012207
-0.026855
-0.036621
-0.036621
-0.031738
-0.031738
-0.031738
-0.024414
-0.029297
-0.046387
-0.104980
-0.136719
-0.146484
-0.144043
-0.107422
-0.122070
-0.114746
-0.102539
-0.097656
-0.092773
-0.161133
-0.180664
-0.178223
-0.163574
-0.109863
-0.131836
-0.119629
-0.104980
-0.109863
-0.109863
-0.195312
-0.217285
-0.202637
-0.161133
-0.068359
-0.024414
0.078125
0.209961
0.371094
0.561523
0.720215
0.969238
1.281738
1.630859
1.997070
2.238770
2.407227
2.453613
2.402344
2.243652
1.943359
1.628418
1.303711
1.013184
0.764160
0.505371
0.305176
0.136719
0.017090
-0.080566
-0.173340
-0.212402
-0.214844
-0.175781
-0.119629
-0.078125
-0.046387
-0.004883
0.043945
0.061035
0.061035
0.043945
0.053711
0.087891
0.129395
0.178223
0.170898
0.187988
0.209961
0.209961
0.212402
0.163574
0.173340
0.197754
0.231934
0.290527
0.261230
0.280762
0.300293
0.295410
0.310059
0.244141
0.246582
0.270996
0.310059
0.366211
0.334473
0.351562
0.375977
0.375977
0.385742
0.332031
0.336914
0.363770
0.402832
0.461426
0.437012
0.456543
0.480957
0.490723
0.502930
0.451660
0.461426
0.488281
0.537109
0.588379
0.576172
0.600586
0.625000
0.632324
0.634766
0.603027
0.612793
0.642090
0.698242
0.749512
0.756836
0.776367
0.800781
0.820312
0.822754
0.817871
0.825195
0.861816
0.920410
0.971680
1.015625
1.027832
1.064453
1.091309
1.101074
1.127930
1.120605
1.166992
1.237793
1.298828
1.369629
1.369629
1.416016
1.440430
1.452637
1.496582
1.474609
1.523438
1.589355
1.652832
1.721191
1.701660
1.735840
1.755371
1.752930
1.777344
1.735840
1.757812
1.787109
1.809082
1.826172
1.765137
1.740723
1.699219
1.635742
1.589355
1.481934
1.433105
1.401367
1.369629
1.328125
1.225586
1.164551
1.083984
1.000977
0.922852
0.817871
0.766602
0.732422
0.710449
0.678711
0.610352
0.563965
0.505371
0.451660
0.397949
0.341797
0.310059
0.310059
0.314941
0.302734
0.288086
0.251465
0.222168
0.190430
0.156250
0.146484
0.114746
0.129395
0.156250
0.158691
0.180664
0.144043
0.129395
0.107422
0.085449
0.102539
0.068359
0.095215
0.126953
0.139160
0.183105
0.136719
0.126953
0.112305
0.097656
0.119629
0.083008
0.112305
0.148926
0.163574
0.197754
0.158691
0.146484
0.131836
0.117188
0.139160
0.104980
0.131836
0.166016
0.185547
0.217285
0.185547
0.175781
0.161133
0.151367
0.156250
0.129395
0.156250
0.185547
0.209961
0.227051
0.205078
0.190430
0.168457
0.158691
0.158691
0.151367
0.168457
0.197754
0.212402
0.222168
0.217285
0.190430
0.168457
0.156250
0.148926
0.168457
0.166016
0.190430
0.209961
0.214844
0.236816
0.187988
0.168457
0.156250
0.151367
0.185547
0.168457
0.195312
0.212402
0.222168
0.258789
0.192871
0.170898
0.158691
0.151367
0.187988
0.158691
0.185547
0.202637
0.207520
0.236816
0.170898
0.146484
0.131836
0.126953
0.161133
0.136719
0.158691
0.175781
0.185547
0.207520
0.148926
0.122070
0.107422
0.104980
0.131836
0.114746
0.139160
0.148926
0.163574
0.175781
0.129395
0.102539
0.083008
0.083008
0.100098
0.097656
0.119629
0.134277
0.151367
0.161133
0.129395
0.097656
0.080566
0.085449
0.100098
0.124512
0.129395
0.139160
0.153809
0.158691
0.156250
0.102539
0.083008
0.085449
0.087891
0.126953
0.109863
0.117188
0.126953
0.134277
0.144043
0.073242
0.056152
0.056152
0.065918
0.117188
0.090332
0.097656
0.117188
0.119629
0.131836
0.053711
0.036621
0.034180
0.048828
0.097656
0.078125
0.083008
0.097656
0.104980
0.112305
0.041504
0.019531
0.019531
0.036621
0.078125
0.061035
0.070801
0.080566
0.092773
0.090332
0.034180
0.014648
0.007324
0.029297
0.063477
0.058594
0.065918
0.073242
0.090332
0.083008
0.039062
0.012207
0.004883
0.026855
0.056152
0.075684
0.073242
0.087891
0.112305
0.114746
0.117188
0.097656
0.119629
0.168457
0.214844
0.278320
0.270996
0.300293
0.332031
0.339355
0.358887
0.322266
0.341797
0.385742
0.441895
0.520020
0.507812
0.544434
0.581055
0.588379
0.605469
0.541992
0.541992
0.559082
0.576172
0.607910
0.549316
0.527344
0.505371
0.461426
0.419922
0.317383
0.270996
0.251465
0.249023
0.258789
0.195312
0.173340
0.156250
0.126953
0.097656
0.024414
0.002441
0.002441
0.024414
0.051270
0.019531
0.019531
0.019531
0.012207
-0.012207
-0.061035
-0.075684
-0.070801
-0.039062
-0.012207
-0.017090
-0.019531
-0.017090
-0.024414
-0.046387
-0.068359
-0.090332
-0.080566
-0.041504
-0.019531
-0.002441
-0.034180
-0.041504
-0.063477
-0.100098
-0.097656
-0.124512
-0.078125
0.009766
0.119629
0.263672
0.368652
0.556641
0.771484
1.013184
1.325684
1.606445
1.962891
2.299805
2.543945
2.675781
2.609863
2.500000
2.292480
1.999512
1.687012
1.308594
1.015625
0.771484
0.566406
0.397949
0.207520
0.107422
0.036621
-0.009766
-0.012207
-0.048828
-0.017090
0.031738
0.092773
0.144043
0.144043
0.178223
0.187988
0.195312
0.197754
0.175781
0.195312
0.227051
0.268555
0.288086
0.280762
0.285645
0.273438
0.266113
0.258789
0.251465
0.256348
0.288086
0.327148
0.346680
0.361328
0.349121
0.341797
0.332031
0.317383
0.336914
0.324707
0.356445
0.395508
0.415039
0.451660
0.419922
0.419922
0.412598
0.410156
0.439453
0.415039
0.454102
0.498047
0.524902
0.573730
0.539551
0.541992
0.537109
0.532227
0.566406
0.539551
0.581055
0.627441
0.659180
0.700684
0.673828
0.673828
0.671387
0.668945
0.698242
0.686035
0.732422
0.778809
0.815430
0.864258
0.849609
0.859375
0.861816
0.876465
0.905762
0.905762
0.957031
1.008301
1.054688
1.098633
1.108398
1.125488
1.130371
1.154785
1.184082
1.215820
1.264648
1.323242
1.376953
1.420898
1.450195
1.450195
1.457520
1.479492
1.506348
1.562500
1.589355
1.645508
1.687012
1.721191
1.770020
1.738281
1.735840
1.740723
1.752930
1.791992
1.772461
1.794434
1.796875
1.787109
1.787109
1.684570
1.621094
1.557617
1.496582
1.477051
1.389160
1.347656
1.298828
1.240234
1.201172
1.071777
0.979004
0.903320
0.842285
0.812988
0.739746
0.712891
0.676270
0.644531
0.625000
0.532227
0.471191
0.424805
0.397949
0.397949
0.356445
0.361328
0.351562
0.349121
0.344238
0.285645
0.244141
0.212402
0.205078
0.212402
0.209961
0.222168
0.227051
0.239258
0.251465
0.219727
0.178223
0.158691
0.161133
0.175781
0.202637
0.205078
0.217285
0.227051
0.229492
0.229492
0.166016
0.151367
0.153809
0.163574
0.207520
0.190430
0.202637
0.217285
0.227051
0.236816
0.166016
0.151367
0.156250
0.170898
0.229492
0.205078
0.214844
0.231934
0.239258
0.256348
0.178223
0.163574
0.168457
0.185547
0.239258
0.219727
0.231934
0.246582
0.256348
0.261230
0.195312
0.175781
0.175781
0.197754
0.241699
0.224609
0.234375
0.246582
0.263672
0.258789
0.197754
0.180664
0.178223
0.197754
0.231934
0.231934
0.236816
0.246582
0.261230
0.253906
0.214844
0.185547
0.180664
0.205078
0.231934
0.251465
0.241699
0.251465
0.261230
0.244141
0.227051
0.173340
0.166016
0.185547
0.205078
0.251465
0.214844
0.222168
0.234375
0.217285
0.214844
0.151367
0.146484
0.163574
0.190430
0.236816
0.192871
0.197754
0.209961
0.195312
0.200195
0.119629
0.114746
0.131836
0.161133
0.209961
0.168457
0.175781
0.185547
0.168457
0.163574
0.097656
0.090332
0.104980
0.136719
0.180664
0.148926
0.153809
0.161133
0.156250
0.146484
0.090332
0.087891
0.104980
0.136719
0.168457
0.144043
0.148926
0.151367
0.144043
0.119629
0.080566
0.063477
0.073242
0.109863
0.136719
0.134277
0.126953
0.131836
0.122070
0.095215
0.078125
0.046387
0.056152
0.090332
0.112305
0.139160
0.104980
0.109863
0.100098
0.070801
0.073242
0.026855
0.039062
0.075684
0.102539
0.141602
0.102539
0.112305
0.104980
0.083008
0.092773
0.034180
0.043945
0.075684
0.100098
0.134277
0.085449
0.087891
0.080566
0.053711
0.053711
0.000000
0.012207
0.043945
0.073242
0.104980
0.073242
0.078125
0.068359
0.051270
0.046387
-0.002441
0.012207
0.041504
0.073242
0.092773
0.061035
0.065918
0.051270
0.036621
0.021973
-0.009766
-0.007324
0.017090
0.051270
0.070801
0.070801
0.078125
0.078125
0.087891
0.090332
0.107422
0.126953
0.178223
0.234375
0.266113
0.305176
0.300293
0.305176
0.312500
0.319824
0.361328
0.363770
0.419922
0.483398
0.515137
0.568848
0.549316
0.554199
0.549316
0.539551
0.561523
0.520020
0.532227
0.541992
0.524902
0.529785
0.446777
0.400391
0.349121
0.295410
0.275879
0.202637
0.195312
0.195312
0.178223
0.180664
0.117188
0.078125
0.039062
0.007324
0.007324
-0.034180
-0.021973
-0.007324
0.004883
0.017090
-0.021973
-0.043945
-0.073242
-0.087891
-0.090332
-0.112305
-0.090332
-0.070801
-0.056152
-0.041504
-0.061035
-0.083008
-0.112305
-0.119629
-0.124512
-0.122070
-0.109863
-0.085449
-0.073242
-0.075684
-0.085449
-0.139160
-0.175781
-0.185547
-0.180664
-0.122070
-0.083008
0.019531
0.144043
0.288086
0.490723
0.651855
0.891113
1.184082
1.518555
1.899414
2.177734
2.414551
2.521973
2.509766
2.426758
2.160645
1.870117
1.550293
1.228027
0.964355
0.664062
0.454102
0.273438
0.129395
0.051270
-0.070801
-0.124512
-0.146484
-0.139160
-0.090332
-0.085449
-0.034180
0.007324
0.051270
0.090332
0.058594
0.056152
0.058594
0.080566
0.122070
0.129395
0.168457
0.185547
0.212402
0.229492
0.192871
0.166016
0.153809
0.168457
0.190430
0.205078
0.227051
0.241699
0.268555
0.283203
0.273438
0.244141
0.234375
0.246582
0.270996
0.312500
0.317383
0.336914
0.361328
0.373535
0.385742
0.329590
0.319824
0.329590
0.351562
0.412598
0.400391
0.419922
0.444336
0.458984
0.478516
0.415039
0.410156
0.427246
0.456543
0.522461
0.507812
0.532227
0.561523
0.585938
0.610352
0.554199
0.556641
0.578613
0.615234
0.681152
0.678711
0.705566
0.734863
0.764160
0.783691
0.739746
0.742188
0.766602
0.808105
0.876465
0.891113
0.935059
0.969238
1.015625
1.040039
1.015625
1.030273
1.059570
1.118164
1.181641
1.215820
1.252441
1.291504
1.342773
1.362305
1.362305
1.367188
1.394043
1.445312
1.503906
1.560059
1.572266
1.608887
1.647949
1.657715
1.667480
1.633301
1.640625
1.667480
1.691895
1.726074
1.677246
1.662598
1.643066
1.589355
1.542969
1.428223
1.372070
1.333008
1.301270
1.284180
1.171875
1.110840
1.054688
0.971680
0.908203
0.769043
0.705566
0.661621
0.629883
0.617676
0.524902
0.480957
0.444336
0.395508
0.349121
0.251465
0.209961
0.197754
0.200195
0.214844
0.161133
0.153809
0.136719
0.112305
0.083008
0.012207
-0.002441
0.002441
0.031738
0.058594
0.029297
0.024414
0.021973
0.004883
-0.021973
-0.061035
-0.075684
-0.068359
-0.039062
-0.019531
-0.021973
-0.039062
-0.036621
-0.048828
-0.070801
-0.087891
-0.124512
-0.112305
-0.080566
-0.058594
-0.031738
-0.065918
-0.058594
-0.070801
-0.092773
-0.085449
-0.131836
-0.114746
-0.078125
-0.046387
-0.009766
-0.046387
-0.039062
-0.043945
-0.065918
-0.058594
-0.112305
-0.090332
-0.056152
-0.026855
0.009766
-0.029297
-0.019531
-0.026855
-0.041504
-0.034180
-0.080566
-0.065918
-0.034180
-0.004883
0.021973
-0.009766
-0.004883
-0.014648
-0.034180
-0.041504
-0.085449
-0.070801
-0.046387
-0.019531
0.000000
-0.029297
-0.026855
-0.041504
-0.056152
-0.070801
-0.095215
-0.087891
-0.058594
-0.029297
-0.019531
-0.024414
-0.034180
-0.053711
-0.070801
-0.090332
-0.097656
-0.112305
-0.092773
-0.065918
-0.058594
-0.041504
-0.075684
-0.087891
-0.107422
-0.124512
-0.104980
-0.134277
-0.107422
-0.075684
-0.065918
-0.031738
-0.078125
-0.092773
-0.107422
-0.129395
-0.109863
-0.151367
-0.126953
-0.097656
-0.092773
-0.061035
-0.112305
-0.129395
-0.146484
-0.161133
-0.139160
-0.180664
-0.156250
-0.129395
-0.119629
-0.097656
-0.139160
-0.156250
-0.178223
-0.197754
-0.190430
-0.217285
-0.190430
-0.166016
-0.151367
-0.134277
-0.168457
-0.185547
-0.209961
-0.217285
-0.212402
-0.227051
-0.205078
-0.178223
-0.166016
-0.153809
-0.166016
-0.190430
-0.212402
-0.222168
-0.224609
-0.214844
-0.207520
-0.187988
-0.170898
-0.163574
-0.153809
-0.197754
-0.222168
-0.239258
-0.249023
-0.217285
-0.234375
-0.209961
-0.192871
-0.185547
-0.153809
-0.219727
-0.244141
-0.256348
-0.258789
-0.219727
-0.239258
-0.212402
-0.195312
-0.187988
-0.161133
-0.229492
-0.253906
-0.261230
-0.266113
-0.222168
-0.249023
-0.224609
-0.207520
-0.192871
-0.161133
-0.214844
-0.231934
-0.236816
-0.224609
-0.180664
-0.178223
-0.136719
-0.102539
-0.068359
-0.034180
-0.068359
-0.073242
-0.070801
-0.048828
-0.004883
0.009766
0.061035
0.100098
0.144043
0.180664
0.168457
0.163574
0.170898
0.200195
0.236816
0.275879
0.295410
0.307617
0.319824
0.314941
0.283203
0.212402
0.168457
0.146484
0.126953
0.134277
0.090332
0.068359
0.048828
0.019531
-0.004883
-0.109863
-0.158691
-0.180664
-0.187988
-0.153809
-0.195312
-0.200195
-0.195312
-0.207520
-0.209961
-0.295410
-0.319824
-0.324707
-0.317383
-0.273438
-0.302734
-0.302734
-0.292969
-0.288086
-0.283203
-0.361328
-0.380859
-0.375977
-0.358887
-0.314941
-0.336914
-0.327148
-0.310059
-0.297852
-0.297852
-0.358887
-0.385742
-0.397949
-0.393066
-0.363770
-0.378418
-0.356445
-0.322266
-0.263672
-0.207520
-0.170898
-0.068359
0.085449
0.310059
0.578613
0.866699
1.181641
1.525879
1.857910
2.089844
2.197266
2.185059
2.111816
1.999512
1.818848
1.594238
1.296387
1.020508
0.756836
0.488281
0.263672
0.019531
-0.136719
-0.234375
-0.292969
-0.292969
-0.351562
-0.341797
-0.314941
-0.310059
-0.283203
-0.324707
-0.297852
-0.246582
-0.190430
-0.112305
-0.124512
-0.095215
-0.063477
-0.061035
-0.041504
-0.097656
-0.085449
-0.053711
-0.012207
0.039062
0.004883
0.019531
0.039062
0.039062
0.041504
-0.004883
0.000000
0.026855
0.065918
0.109863
0.087891
0.109863
0.124512
0.129395
0.122070
0.078125
0.080566
0.102539
0.141602
0.178223
0.173340
0.187988
0.202637
0.209961
0.205078
0.190430
0.187988
0.209961
0.261230
0.295410
0.319824
0.322266
0.339355
0.346680
0.334473
0.341797
0.324707
0.354004
0.402832
0.444336
0.495605
0.478516
0.505371
0.517578
0.517578
0.541992
0.510254
0.549316
0.605469
0.651855
0.708008
0.693359
0.720215
0.737305
0.747070
0.788574
0.771484
0.822754
0.891113
0.957031
1.022949
1.013184
1.052246
1.074219
1.086426
1.118164
1.105957
1.152344
1.215820
1.279297
1.333008
1.335449
1.374512
1.394043
1.411133
1.430664
1.418457
1.459961
1.503906
1.550293
1.577148
1.560059
1.560059
1.533203
1.499023
1.464844
1.411133
1.379395
1.362305
1.350098
1.306152
1.250000
1.176758
1.091309
1.010742
0.925293
0.861816
0.788574
0.747070
0.715332
0.656738
0.622559
0.529785
0.461426
0.390625
0.324707
0.295410
0.217285
0.205078
0.195312
0.168457
0.170898
0.097656
0.056152
0.017090
-0.014648
-0.009766
-0.056152
-0.041504
-0.024414
-0.021973
-0.002441
-0.058594
-0.083008
-0.109863
-0.129395
-0.117188
-0.153809
-0.131836
-0.109863
-0.100098
-0.073242
-0.114746
-0.134277
-0.156250
-0.163574
-0.156250
-0.178223
-0.148926
-0.122070
-0.102539
-0.085449
-0.112305
-0.126953
-0.151367
-0.158691
-0.153809
-0.161133
-0.141602
-0.117188
-0.097656
-0.083008
-0.090332
-0.119629
-0.141602
-0.146484
-0.151367
-0.134277
-0.126953
-0.104980
-0.085449
-0.078125
-0.061035
-0.104980
-0.126953
-0.136719
-0.139160
-0.102539
-0.122070
-0.097656
-0.080566
-0.070801
-0.039062
-0.102539
-0.117188
-0.124512
-0.126953
-0.083008
-0.102539
-0.075684
-0.061035
-0.048828
-0.021973
-0.087891
-0.107422
-0.114746
-0.109863
-0.065918
-0.085449
-0.053711
-0.039062
-0.024414
-0.002441
-0.063477
-0.090332
-0.100098
-0.095215
-0.063477
-0.078125
-0.053711
-0.043945
-0.026855
-0.017090
-0.070801
-0.092773
-0.109863
-0.107422
-0.085449
-0.092773
-0.075684
-0.070801
-0.056152
-0.048828
-0.087891
-0.124512
-0.144043
-0.136719
-0.119629
-0.097656
-0.090332
-0.083008
-0.065918
-0.065918
-0.073242
-0.124512
-0.141602
-0.134277
-0.117188
-0.070801
-0.085449
-0.073242
-0.058594
-0.056152
-0.048828
-0.119629
-0.131836
-0.129395
-0.117188
-0.068359
-0.097656
-0.092773
-0.080566
-0.075684
-0.065918
-0.141602
-0.156250
-0.151367
-0.129395
-0.078125
-0.102539
-0.095215
-0.083008
-0.073242
-0.065918
-0.131836
-0.146484
-0.136719
-0.112305
-0.063477
-0.087891
-0.085449
-0.073242
-0.058594
-0.058594
-0.114746
-0.126953
-0.119629
-0.092773
-0.048828
-0.048828
-0.026855
0.000000
0.031738
0.046387
0.019531
0.019531
0.041504
0.090332
0.141602
0.175781
0.190430
0.229492
0.263672
0.270996
0.273438
0.261230
0.285645
0.339355
0.395508
0.458984
0.456543
0.485840
0.510254
0.498047
0.495605
0.427246
0.415039
0.415039
0.417480
0.437012
0.363770
0.341797
0.317383
0.268555
0.239258
0.134277
0.102539
0.092773
0.095215
0.112305
0.048828
0.036621
0.029297
-0.004883
-0.019531
-0.097656
-0.109863
-0.100098
-0.078125
-0.043945
-0.092773
-0.092773
-0.095215
-0.112305
-0.129395
-0.195312
-0.202637
-0.185547
-0.156250
-0.124512
-0.148926
-0.136719
-0.129395
-0.134277
-0.144043
-0.185547
-0.190430
-0.173340
-0.141602
-0.124512
-0.151367
-0.168457
-0.168457
-0.173340
-0.178223
-0.166016
-0.131836
-0.041504
0.102539
0.266113
0.461426
0.659180
0.922852
1.213379
1.516113
1.850586
2.102051
2.316895
2.426758
2.414551
2.333984
2.114258
1.884766
1.606445
1.298828
1.025391
0.708008
0.480957
0.307617
0.156250
0.048828
-0.100098
-0.168457
-0.214844
-0.249023
-0.234375
-0.261230
-0.217285
-0.153809
-0.095215
-0.029297
-0.036621
-0.007324
0.007324
0.012207
0.034180
0.007324
0.036621
0.083008
0.122070
0.153809
0.134277
0.146484
0.141602
0.134277
0.139160
0.119629
0.144043
0.178223
0.219727
0.246582
0.239258
0.244141
0.236816
0.234375
0.229492
0.227051
0.239258
0.275879
0.317383
0.334473
0.354004
0.341797
0.332031
0.324707
0.317383
0.339355
0.334473
0.375977
0.422363
0.437012
0.480957
0.456543
0.454102
0.456543
0.456543
0.502930
0.488281
0.534668
0.581055
0.607910
0.656738
0.622559
0.622559
0.627441
0.627441
0.668945
0.656738
0.705566
0.761719
0.795898
0.852051
0.834961
0.839844
0.849609
0.869141
0.915527
0.915527
0.974121
1.035156
1.081543
1.137695
1.130371
1.147461
1.159668
1.184082
1.228027
1.247559
1.308594
1.367188
1.416016
1.464844
1.472168
1.486816
1.496582
1.528320
1.560059
1.589355
1.633301
1.682129
1.721191
1.752930
1.765137
1.738281
1.713867
1.701660
1.689453
1.696777
1.677246
1.667480
1.647949
1.606445
1.574707
1.467285
1.389160
1.315918
1.250000
1.225586
1.140137
1.093750
1.044922
0.988770
0.952148
0.822754
0.739746
0.673828
0.622559
0.615234
0.546875
0.524902
0.500488
0.471191
0.461426
0.363770
0.310059
0.273438
0.253906
0.273438
0.231934
0.236816
0.234375
0.239258
0.246582
0.175781
0.146484
0.129395
0.131836
0.153809
0.139160
0.156250
0.158691
0.170898
0.178223
0.124512
0.100098
0.083008
0.095215
0.112305
0.117188
0.136719
0.148926
0.166016
0.173340
0.144043
0.112305
0.095215
0.107422
0.126953
0.156250
0.158691
0.168457
0.190430
0.190430
0.185547
0.134277
0.126953
0.136719
0.158691
0.209961
0.200195
0.209961
0.227051
0.231934
0.241699
0.170898
0.156250
0.168457
0.192871
0.246582
0.219727
0.229492
0.249023
0.253906
0.261230
0.192871
0.175781
0.180664
0.200195
0.249023
0.222168
0.231934
0.249023
0.258789
0.263672
0.195312
0.180664
0.185547
0.212402
0.256348
0.239258
0.249023
0.258789
0.266113
0.256348
0.195312
0.180664
0.180664
0.209961
0.241699
0.234375
0.236816
0.241699
0.253906
0.239258
0.195312
0.175781
0.173340
0.200195
0.229492
0.244141
0.234375
0.241699
0.251465
0.231934
0.212402
0.168457
0.166016
0.190430
0.214844
0.253906
0.224609
0.234375
0.241699
0.222168
0.222168
0.161133
0.163574
0.187988
0.222168
0.270996
0.229492
0.241699
0.251465
0.231934
0.231934
0.166016
0.168457
0.190430
0.219727
0.270996
0.236816
0.249023
0.263672
0.253906
0.253906
0.187988
0.190430
0.212402
0.246582
0.290527
0.256348
0.268555
0.273438
0.261230
0.249023
0.195312
0.192871
0.214844
0.249023
0.280762
0.256348
0.261230
0.263672
0.253906
0.234375
0.197754
0.195312
0.209961
0.246582
0.273438
0.268555
0.266113
0.270996
0.261230
0.241699
0.222168
0.197754
0.212402
0.246582
0.266113
0.285645
0.261230
0.263672
0.253906
0.231934
0.246582
0.222168
0.261230
0.319824
0.371094
0.434570
0.417480
0.441895
0.451660
0.446777
0.476074
0.444336
0.490723
0.549316
0.600586
0.661621
0.649414
0.678711
0.690918
0.695801
0.725098
0.695801
0.729980
0.771484
0.800781
0.827637
0.781250
0.771484
0.734863
0.690918
0.656738
0.583496
0.566406
0.561523
0.551758
0.534668
0.466309
0.434570
0.383301
0.336914
0.300293
0.244141
0.236816
0.246582
0.258789
0.258789
0.234375
0.214844
0.180664
0.156250
0.131836
0.112305
0.102539
0.122070
0.144043
0.148926
0.163574
0.136719
0.117188
0.097656
0.075684
0.090332
0.070801
0.100098
0.129395
0.139160
0.173340
0.129395
0.112305
0.087891
0.063477
0.078125
0.031738
0.061035
0.100098
0.136719
0.214844
0.229492
0.302734
0.402832
0.537109
0.747070
0.937500
1.230469
1.569824
1.918945
2.275391
2.497559
2.651367
2.680664
2.609863
2.473145
2.204590
1.928711
1.623535
1.318359
1.044922
0.749512
0.510254
0.310059
0.170898
0.095215
0.039062
0.053711
0.083008
0.117188
0.156250
0.161133
0.170898
0.180664
0.202637
0.234375
0.261230
0.295410
0.334473
0.363770
0.383301
0.397949
0.363770
0.351562
0.349121
0.354004
0.390625
0.395508
0.424805
0.444336
0.458984
0.488281
0.434570
0.417480
0.417480
0.427246
0.480957
0.466309
0.498047
0.522461
0.537109
0.573730
0.510254
0.495605
0.495605
0.507812
0.559082
0.541992
0.571289
0.598145
0.620117
0.656738
0.600586
0.588379
0.598145
0.610352
0.664062
0.656738
0.693359
0.720215
0.749512
0.783691
0.739746
0.732422
0.732422
0.756836
0.800781
0.812988
0.854492
0.886230
0.920410
0.947266
0.920410
0.915527
0.920410
0.952148
0.996094
1.027832
1.062012
1.093750
1.135254
1.164551
1.169434
1.159668
1.179199
1.220703
1.271973
1.342773
1.372070
1.413574
1.462402
1.494141
1.530762
1.501465
1.520996
1.562500
1.613770
1.699219
1.708984
1.752930
1.806641
1.838379
1.882324
1.835938
1.848145
1.879883
1.918945
1.989746
1.972656
1.987305
2.004395
1.999512
1.989746
1.894531
1.848145
1.821289
1.796875
1.794434
1.711426
1.662598
1.613770
1.555176
1.486816
1.350098
1.257324
1.186523
1.140137
1.110840
1.025391
0.971680
0.922852
0.876465
0.812988
0.708008
0.646973
0.605469
0.593262
0.590820
0.559082
0.529785
0.505371
0.490723
0.454102
0.393066
0.346680
0.332031
0.346680
0.358887
0.368652
0.344238
0.341797
0.346680
0.322266
0.307617
0.256348
0.251465
0.275879
0.297852
0.336914
0.305176
0.312500
0.324707
0.302734
0.302734
0.239258
0.239258
0.263672
0.290527
0.339355
0.300293
0.307617
0.317383
0.302734
0.307617
0.246582
0.249023
0.278320
0.307617
0.351562
0.314941
0.324707
0.334473
0.322266
0.322266
0.266113
0.268555
0.292969
0.327148
0.366211
0.334473
0.344238
0.351562
0.349121
0.336914
0.288086
0.288086
0.310059
0.349121
0.378418
0.361328
0.368652
0.368652
0.358887
0.339355
0.305176
0.297852
0.317383
0.358887
0.378418
0.378418
0.368652
0.368652
0.356445
0.332031
0.324707
0.302734
0.319824
0.358887
0.380859
0.405273
0.375977
0.378418
0.366211
0.341797
0.351562
0.305176
0.324707
0.356445
0.375977
0.410156
0.363770
0.361328
0.346680
0.319824
0.332031
0.278320
0.297852
0.329590
0.354004
0.383301
0.341797
0.344238
0.332031
0.312500
0.314941
0.270996
0.290527
0.319824
0.341797
0.366211
0.327148
0.324707
0.302734
0.285645
0.278320
0.234375
0.251465
0.278320
0.307617
0.322266
0.297852
0.297852
0.273438
0.253906
0.244141
0.222168
0.234375
0.261230
0.292969
0.302734
0.290527
0.275879
0.253906
0.234375
0.217285
0.217285
0.217285
0.241699
0.270996
0.278320
0.297852
0.266113
0.246582
0.231934
0.214844
0.234375
0.209961
0.236816
0.261230
0.270996
0.302734
0.256348
0.234375
0.217285
0.202637
0.229492
0.192871
0.222168
0.251465
0.263672
0.292969
0.239258
0.222168
0.205078
0.187988
0.209961
0.180664
0.205078
0.229492
0.236816
0.261230
0.217285
0.197754
0.180664
0.178223
0.197754
0.175781
0.207520
0.236816
0.261230
0.288086
0.263672
0.266113
0.268555
0.288086
0.324707
0.341797
0.390625
0.434570
0.471191
0.505371
0.507812
0.500488
0.500488
0.517578
0.546875
0.583496
0.620117
0.661621
0.700684
0.729980
0.756836
0.725098
0.712891
0.708008
0.708008
0.732422
0.708008
0.710449
0.698242
0.676270
0.668945
0.571289
0.510254
0.458984
0.422363
0.429688
0.371094
0.363770
0.354004
0.339355
0.339355
0.241699
0.195312
0.166016
0.151367
0.180664
0.146484
0.163574
0.168457
0.168457
0.183105
0.109863
0.078125
0.063477
0.063477
0.097656
0.075684
0.090332
0.100098
0.112305
0.126953
0.065918
0.048828
0.036621
0.043945
0.070801
0.063477
0.080566
0.085449
0.095215
0.092773
0.034180
0.000000
-0.012207
0.017090
0.073242
0.144043
0.227051
0.341797
0.488281
0.651855
0.832520
1.032715
1.306152
1.643066
1.999512
2.338867
2.553711
2.668457
2.673340
2.558594
2.353516
2.011719
1.682129
1.362305
1.076660
0.854492
0.593262
0.407715
0.270996
0.168457
0.119629
0.019531
0.004883
0.026855
0.068359
0.146484
0.144043
0.183105
0.224609
0.253906
0.280762
0.229492
0.229492
0.251465
0.285645
0.346680
0.327148
0.344238
0.363770
0.378418
0.383301
0.322266
0.314941
0.324707
0.356445
0.400391
0.390625
0.407715
0.429688
0.449219
0.446777
0.400391
0.390625
0.395508
0.429688
0.466309
0.478516
0.490723
0.512695
0.532227
0.529785
0.510254
0.493164
0.502930
0.541992
0.581055
0.617676
0.607910
0.625000
0.644531
0.634766
0.639648
0.598145
0.615234
0.649414
0.688477
0.744629
0.720215
0.744629
0.766602
0.764160
0.788574
0.739746
0.764160
0.810547
0.861816
0.930176
0.903320
0.937500
0.969238
0.974121
1.000977
0.961914
0.988770
1.040039
1.096191
1.166992
1.154785
1.191406
1.228027
1.242676
1.267090
1.242676
1.274414
1.335449
1.406250
1.477051
1.484375
1.530762
1.572266
1.596680
1.618652
1.606445
1.643066
1.696777
1.765137
1.823730
1.838379
1.870117
1.899414
1.911621
1.911621
1.901855
1.904297
1.928711
1.960449
1.975098
1.965332
1.923828
1.889648
1.835938
1.762695
1.706543
1.618652
1.579590
1.547852
1.499023
1.455078
1.352539
1.281738
1.196289
1.105957
1.052246
0.937500
0.893555
0.869141
0.834961
0.817871
0.725098
0.681152
0.632324
0.573730
0.549316
0.468750
0.461426
0.468750
0.468750
0.480957
0.422363
0.405273
0.378418
0.344238
0.334473
0.278320
0.283203
0.310059
0.327148
0.344238
0.305176
0.300293
0.275879
0.253906
0.244141
0.207520
0.224609
0.249023
0.275879
0.288086
0.266113
0.261230
0.244141
0.231934
0.219727
0.205078
0.217285
0.249023
0.278320
0.292969
0.295410
0.280762
0.263672
0.251465
0.239258
0.249023
0.241699
0.273438
0.307617
0.312500
0.341797
0.307617
0.290527
0.278320
0.266113
0.292969
0.268555
0.300293
0.329590
0.339355
0.373535
0.324707
0.307617
0.297852
0.280762
0.310059
0.275879
0.302734
0.332031
0.346680
0.378418
0.329590
0.305176
0.290527
0.275879
0.297852
0.268555
0.292969
0.324707
0.334473
0.358887
0.314941
0.295410
0.273438
0.261230
0.275879
0.258789
0.285645
0.310059
0.327148
0.346680
0.314941
0.297852
0.275879
0.273438
0.278320
0.270996
0.290527
0.310059
0.324707
0.334473
0.317383
0.285645
0.258789
0.249023
0.246582
0.261230
0.263672
0.278320
0.295410
0.295410
0.302734
0.246582
0.219727
0.205078
0.200195
0.234375
0.219727
0.234375
0.244141
0.249023
0.266113
0.195312
0.168457
0.158691
0.156250
0.200195
0.175781
0.195312
0.207520
0.214844
0.239258
0.168457
0.141602
0.131836
0.136719
0.180664
0.156250
0.178223
0.190430
0.202637
0.219727
0.153809
0.126953
0.119629
0.124512
0.161133
0.148926
0.166016
0.175781
0.190430
0.200195
0.141602
0.119629
0.104980
0.114746
0.136719
0.134277
0.151367
0.156250
0.170898
0.175781
0.136719
0.104980
0.087891
0.097656
0.119629
0.139160
0.144043
0.151367
0.168457
0.168457
0.151367
0.100098
0.087891
0.095215
0.112305
0.156250
0.141602
0.148926
0.158691
0.158691
0.163574
0.097656
0.085449
0.095215
0.117188
0.170898
0.139160
0.148926
0.166016
0.168457
0.178223
0.104980
0.087891
0.097656
0.119629
0.170898
0.141602
0.146484
0.163574
0.173340
0.180664
0.122070
0.124512
0.153809
0.202637
0.275879
0.283203
0.317383
0.349121
0.373535
0.390625
0.344238
0.351562
0.373535
0.429688
0.493164
0.505371
0.539551
0.576172
0.610352
0.620117
0.598145
0.600586
0.607910
0.639648
0.668945
0.664062
0.646973
0.629883
0.610352
0.561523
0.498047
0.429688
0.393066
0.383301
0.373535
0.368652
0.312500
0.285645
0.258789
0.209961
0.178223
0.097656
0.078125
0.085449
0.097656
0.122070
0.065918
0.058594
0.051270
0.021973
0.014648
-0.058594
-0.061035
-0.041504
-0.017090
0.024414
-0.021973
-0.017090
-0.009766
-0.021973
-0.024414
-0.085449
-0.085449
-0.063477
-0.034180
0.004883
-0.029297
-0.021973
-0.019531
-0.043945
-0.065918
-0.134277
-0.139160
-0.109863
-0.048828
0.029297
0.063477
0.163574
0.278320
0.415039
0.576172
0.747070
1.008301
1.328125
1.694336
2.043457
2.309570
2.492676
2.551270
2.492676
2.329102
2.072754
1.765137
1.457520
1.176758
0.903320
0.656738
0.422363
0.244141
0.100098
-0.009766
-0.051270
-0.097656
-0.070801
-0.017090
0.034180
0.090332
0.090332
0.124512
0.146484
0.153809
0.190430
0.166016
0.212402
0.261230
0.295410
0.339355
0.307617
0.317383
0.317383
0.307617
0.327148
0.285645
0.307617
0.344238
0.371094
0.405273
0.371094
0.373535
0.361328
0.336914
0.336914
0.292969
0.300293
0.322266
0.334473
0.346680
0.305176
0.297852
0.275879
0.261230
0.258789
0.234375
0.263672
0.297852
0.329590
0.344238
0.327148
0.319824
0.295410
0.280762
0.273438
0.268555
0.283203
0.319824
0.361328
0.385742
0.405273
0.402832
0.402832
0.397949
0.397949
0.429688
0.434570
0.476074
0.520020
0.544434
0.595703
0.583496
0.593262
0.603027
0.617676
0.664062
0.659180
0.710449
0.759277
0.793457
0.859375
0.839844
0.856934
0.876465
0.898438
0.971680
0.974121
1.037598
1.101074
1.147461
1.215820
1.206055
1.225586
1.250000
1.276855
1.340332
1.357422
1.423340
1.489258
1.542969
1.604004
1.594238
1.608887
1.621094
1.640625
1.674805
1.677246
1.718750
1.748047
1.760254
1.770020
1.726074
1.682129
1.623535
1.574707
1.530762
1.472168
1.430664
1.381836
1.333008
1.274414
1.193848
1.086426
0.993652
0.910645
0.837402
0.788574
0.729980
0.695801
0.659180
0.615234
0.588379
0.485840
0.422363
0.371094
0.327148
0.324707
0.273438
0.261230
0.246582
0.234375
0.244141
0.163574
0.122070
0.095215
0.078125
0.109863
0.078125
0.085449
0.090332
0.090332
0.107422
0.026855
-0.002441
-0.014648
-0.019531
0.017090
-0.002441
0.017090
0.029297
0.039062
0.056152
-0.004883
-0.029297
-0.039062
-0.029297
0.009766
0.012207
0.039062
0.051270
0.065918
0.070801
0.017090
-0.012207
-0.031738
-0.024414
-0.002441
0.009766
0.021973
0.029297
0.051270
0.058594
0.034180
0.002441
-0.012207
-0.002441
0.019531
0.053711
0.063477
0.078125
0.100098
0.107422
0.104980
0.051270
0.036621
0.048828
0.073242
0.129395
0.119629
0.139160
0.168457
0.175781
0.180664
0.107422
0.080566
0.070801
0.073242
0.117188
0.083008
0.090332
0.104980
0.107422
0.114746
0.039062
0.019531
0.024414
0.041504
0.092773
0.075684
0.087891
0.104980
0.107422
0.104980
0.036621
0.012207
0.014648
0.034180
0.070801
0.048828
0.058594
0.073242
0.078125
0.058594
-0.012207
-0.041504
-0.053711
-0.031738
0.002441
0.007324
0.024414
0.046387
0.065918
0.048828
0.004883
-0.029297
-0.041504
-0.019531
0.007324
0.026855
0.024414
0.031738
0.041504
0.014648
-0.012207
-0.063477
-0.073242
-0.048828
-0.019531
0.026855
0.007324
0.024414
0.036621
0.004883
-0.009766
-0.085449
-0.100098
-0.083008
-0.051270
-0.002441
-0.026855
-0.014648
-0.007324
-0.026855
-0.034180
-0.097656
-0.097656
-0.065918
-0.034180
0.014648
-0.017090
-0.004883
-0.002441
-0.026855
-0.046387
-0.117188
-0.136719
-0.119629
-0.085449
-0.039062
-0.058594
-0.043945
-0.039062
-0.065918
-0.092773
-0.156250
-0.161133
-0.141602
-0.100098
-0.061035
-0.068359
-0.053711
-0.051270
-0.065918
-0.095215
-0.141602
-0.153809
-0.139160
-0.100098
-0.078125
-0.078125
-0.080566
-0.087891
-0.112305
-0.151367
-0.183105
-0.214844
-0.207520
-0.173340
-0.148926
-0.122070
-0.131836
-0.119629
-0.124512
-0.151367
-0.148926
-0.195312
-0.180664
-0.144043
-0.117188
-0.080566
-0.112305
-0.114746
-0.134277
-0.168457
-0.173340
-0.229492
-0.209961
-0.168457
-0.129395
-0.075684
-0.097656
-0.080566
-0.080566
-0.092773
-0.075684
-0.102539
-0.065918
-0.002441
0.053711
0.117188
0.117188
0.144043
0.148926
0.148926
0.163574
0.151367
0.200195
0.266113
0.329590
0.383301
0.385742
0.410156
0.400391
0.385742
0.375977
0.341797
0.351562
0.368652
0.383301
0.373535
0.334473
0.288086
0.219727
0.146484
0.075684
0.021973
-0.014648
-0.026855
-0.024414
-0.036621
-0.036621
-0.080566
-0.129395
-0.173340
-0.214844
-0.214844
-0.241699
-0.214844
-0.190430
-0.185547
-0.163574
-0.214844
-0.256348
-0.295410
-0.332031
-0.319824
-0.354004
-0.327148
-0.300293
-0.285645
-0.253906
-0.302734
-0.332031
-0.363770
-0.393066
-0.375977
-0.407715
-0.375977
-0.341797
-0.322266
-0.295410
-0.349121
-0.385742
-0.427246
-0.449219
-0.427246
-0.419922
-0.344238
-0.249023
-0.134277
0.012207
0.131836
0.292969
0.478516
0.727539
1.040039
1.357422
1.694336
1.960449
2.116699
2.143555
2.023926
1.804199
1.506348
1.179199
0.859375
0.566406
0.322266
0.114746
-0.053711
-0.192871
-0.297852
-0.405273
-0.468750
-0.485840
-0.476074
-0.429688
-0.397949
-0.339355
-0.285645
-0.241699
-0.190430
-0.227051
-0.234375
-0.239258
-0.227051
-0.173340
-0.175781
-0.141602
-0.112305
-0.080566
-0.046387
-0.104980
-0.126953
-0.139160
-0.139160
-0.090332
-0.102539
-0.063477
-0.034180
-0.004883
0.029297
-0.034180
-0.058594
-0.065918
-0.058594
-0.012207
-0.007324
0.031738
0.068359
0.100098
0.124512
0.070801
0.046387
0.029297
0.036621
0.078125
0.092773
0.139160
0.168457
0.207520
0.234375
0.192871
0.170898
0.156250
0.173340
0.205078
0.236816
0.270996
0.305176
0.349121
0.373535
0.363770
0.334473
0.327148
0.346680
0.380859
0.429688
0.449219
0.480957
0.522461
0.544434
0.561523
0.520020
0.524902
0.546875
0.590820
0.676270
0.693359
0.744629
0.795898
0.832520
0.859375
0.812988
0.820312
0.852051
0.908203
0.998535
1.018066
1.074219
1.127930
1.166992
1.203613
1.159668
1.174316
1.218262
1.281738
1.381836
1.403809
1.459961
1.518555
1.552734
1.567383
1.516113
1.503906
1.513672
1.542969
1.594238
1.586914
1.599121
1.601562
1.584473
1.533203
1.413574
1.330566
1.257324
1.218262
1.184082
1.118164
1.062012
1.008301
0.939941
0.837402
0.712891
0.595703
0.512695
0.468750
0.439453
0.405273
0.346680
0.305176
0.261230
0.185547
0.117188
0.024414
-0.012207
-0.017090
-0.014648
0.009766
-0.034180
-0.036621
-0.046387
-0.092773
-0.119629
-0.209961
-0.231934
-0.214844
-0.190430
-0.139160
-0.168457
-0.146484
-0.134277
-0.153809
-0.153809
-0.214844
-0.209961
-0.178223
-0.139160
-0.083008
-0.117188
-0.097656
-0.087891
-0.102539
-0.107422
-0.166016
-0.163574
-0.129395
-0.083008
-0.029297
-0.036621
-0.012207
-0.002441
-0.012207
-0.029297
-0.083008
-0.085449
-0.065918
-0.024414
0.009766
-0.004883
0.002441
0.000000
-0.024414
-0.058594
-0.102539
-0.112305
-0.092773
-0.048828
-0.014648
0.002441
0.009766
0.017090
0.004883
-0.024414
-0.041504
-0.063477
-0.034180
0.007324
0.034180
0.061035
0.039062
0.039062
0.019531
-0.012207
-0.009766
-0.058594
-0.039062
-0.002441
0.031738
0.080566
0.061035
0.068359
0.048828
0.004883
-0.009766
-0.075684
-0.065918
-0.034180
-0.007324
0.036621
0.004883
0.004883
-0.014648
-0.048828
-0.053711
-0.100098
-0.078125
-0.031738
0.002441
0.041504
0.021973
0.019531
-0.007324
-0.046387
-0.068359
-0.112305
-0.100098
-0.065918
-0.031738
-0.007324
-0.021973
-0.021973
-0.048828
-0.078125
-0.097656
-0.131836
-0.124512
-0.097656
-0.061035
-0.034180
-0.021973
-0.031738
-0.058594
-0.085449
-0.109863
-0.114746
-0.107422
-0.068359
-0.024414
-0.004883
0.021973
-0.004883
-0.036621
-0.068359
-0.102539
-0.087891
-0.112305
-0.085449
-0.056152
-0.043945
-0.009766
-0.061035
-0.092773
-0.124512
-0.156250
-0.139160
-0.166016
-0.134277
-0.097656
-0.078125
-0.043945
-0.097656
-0.134277
-0.166016
-0.192871
-0.170898
-0.197754
-0.158691
-0.114746
-0.090332
-0.051270
-0.090332
-0.114746
-0.144043
-0.166016
-0.158691
-0.168457
-0.131836
-0.092773
-0.063477
-0.039062
-0.070801
-0.097656
-0.129395
-0.139160
-0.131836
-0.134277
-0.087891
-0.039062
0.012207
0.058594
0.063477
0.048828
0.034180
0.034180
0.051270
0.083008
0.126953
0.178223
0.234375
0.273438
0.307617
0.288086
0.283203
0.290527
0.312500
0.378418
0.405273
0.454102
0.488281
0.505371
0.520020
0.432129
0.368652
0.314941
0.273438
0.280762
0.234375
0.229492
0.219727
0.202637
0.187988
0.078125
0.002441
-0.048828
-0.078125
-0.058594
-0.092773
-0.075684
-0.063477
-0.053711
-0.043945
-0.126953
-0.175781
-0.207520
-0.219727
-0.190430
-0.200195
-0.178223
-0.158691
-0.136719
-0.129395
-0.197754
-0.236816
-0.263672
-0.256348
-0.229492
-0.224609
-0.192871
-0.178223
-0.151367
-0.146484
-0.197754
-0.239258
-0.270996
-0.278320
-0.268555
-0.253906
-0.236816
-0.209961
-0.163574
-0.126953
-0.097656
-0.068359
0.017090
0.163574
0.358887
0.615234
0.869141
1.179199
1.528320
1.838379
2.087402
2.167969
2.177734
2.116699
1.992188
1.838379
1.560059
1.293945
1.030273
0.761719
0.515137
0.224609
0.017090
-0.134277
-0.229492
-0.251465
-0.317383
-0.312500
-0.278320
-0.246582
-0.217285
-0.263672
-0.256348
-0.219727
-0.156250
-0.058594
-0.034180
0.014648
0.061035
0.083008
0.087891
0.029297
0.017090
0.029297
0.078125
0.134277
0.146484
0.180664
0.212402
0.231934
0.224609
0.175781
0.161133
0.163574
0.200195
0.246582
0.273438
0.297852
0.324707
0.341797
0.319824
0.285645
0.253906
0.256348
0.295410
0.339355
0.385742
0.400391
0.422363
0.437012
0.412598
0.402832
0.354004
0.356445
0.388184
0.429688
0.490723
0.483398
0.517578
0.539551
0.529785
0.537109
0.483398
0.495605
0.534668
0.585938
0.659180
0.656738
0.698242
0.729980
0.734863
0.742188
0.698242
0.722656
0.776367
0.844727
0.927734
0.935059
0.986328
1.020508
1.027832
1.042480
1.008301
1.037598
1.101074
1.186523
1.274414
1.313477
1.389160
1.447754
1.484375
1.508789
1.503906
1.552734
1.618652
1.706543
1.782227
1.818848
1.872559
1.911621
1.936035
1.948242
1.948242
1.970215
2.021484
2.084961
2.131348
2.160645
2.165527
2.160645
2.133789
2.082520
2.043457
1.977539
1.958008
1.955566
1.936035
1.918945
1.840820
1.772461
1.677246
1.564941
1.491699
1.364746
1.313477
1.276855
1.235352
1.210938
1.118164
1.057129
0.979004
0.895996
0.849609
0.764160
0.742188
0.737305
0.725098
0.722656
0.664062
0.632324
0.573730
0.512695
0.478516
0.417480
0.415039
0.432129
0.451660
0.478516
0.456543
0.449219
0.422363
0.390625
0.363770
0.327148
0.344238
0.373535
0.410156
0.434570
0.429688
0.424805
0.390625
0.349121
0.314941
0.283203
0.290527
0.322266
0.358887
0.380859
0.395508
0.375977
0.344238
0.307617
0.275879
0.275879
0.275879
0.307617
0.346680
0.366211
0.400391
0.371094
0.344238
0.312500
0.283203
0.300293
0.275879
0.310059
0.344238
0.366211
0.410156
0.366211
0.346680
0.322266
0.302734
0.327148
0.310059
0.354004
0.393066
0.419922
0.458984
0.417480
0.390625
0.356445
0.324707
0.329590
0.305176
0.336914
0.371094
0.395508
0.427246
0.388184
0.363770
0.336914
0.324707
0.334473
0.327148
0.361328
0.385742
0.402832
0.419922
0.390625
0.358887
0.319824
0.295410
0.288086
0.285645
0.312500
0.341797
0.373535
0.393066
0.390625
0.351562
0.312500
0.288086
0.278320
0.302734
0.319824
0.346680
0.373535
0.380859
0.388184
0.329590
0.290527
0.266113
0.258789
0.297852
0.297852
0.329590
0.354004
0.371094
0.393066
0.319824
0.278320
0.253906
0.244141
0.290527
0.275879
0.297852
0.317383
0.329590
0.349121
0.275879
0.241699
0.224609
0.222168
0.268555
0.268555
0.305176
0.327148
0.341797
0.349121
0.275879
0.234375
0.212402
0.219727
0.261230
0.283203
0.317383
0.346680
0.368652
0.375977
0.332031
0.305176
0.290527
0.310059
0.354004
0.395508
0.446777
0.480957
0.520020
0.532227
0.510254
0.488281
0.483398
0.510254
0.559082
0.632324
0.681152
0.727539
0.778809
0.798340
0.805664
0.769043
0.756836
0.769043
0.795898
0.842285
0.830078
0.820312
0.805664
0.764160
0.712891
0.610352
0.541992
0.505371
0.493164
0.512695
0.483398
0.471191
0.456543
0.415039
0.363770
0.266113
0.214844
0.195312
0.205078
0.241699
0.244141
0.253906
0.258789
0.241699
0.200195
0.122070
0.078125
0.063477
0.087891
0.126953
0.144043
0.168457
0.190430
0.187988
0.151367
0.087891
0.061035
0.056152
0.085449
0.122070
0.146484
0.161133
0.166016
0.151367
0.095215
0.031738
-0.014648
-0.021973
0.019531
0.083008
0.161133
0.239258
0.346680
0.461426
0.573730
0.727539
0.913086
1.181641
1.528320
1.909180
2.290039
2.563477
2.731934
2.766113
2.661133
2.490234
2.231445
1.975098
1.721191
1.469727
1.237793
0.971680
0.756836
0.559082
0.366211
0.214844
0.058594
-0.012207
-0.017090
0.012207
0.065918
0.080566
0.119629
0.139160
0.131836
0.129395
0.112305
0.139160
0.195312
0.263672
0.327148
0.351562
0.388184
0.400391
0.383301
0.349121
0.305176
0.300293
0.332031
0.383301
0.427246
0.449219
0.473633
0.480957
0.461426
0.427246
0.395508
0.395508
0.424805
0.480957
0.520020
0.544434
0.561523
0.556641
0.527344
0.483398
0.461426
0.446777
0.473633
0.529785
0.576172
0.622559
0.634766
0.642090
0.625000
0.585938
0.571289
0.549316
0.576172
0.620117
0.659180
0.710449
0.712891
0.715332
0.690918
0.656738
0.649414
0.629883
0.664062
0.720215
0.769043
0.827637
0.839844
0.852051
0.830078
0.786133
0.764160
0.739746
0.769043
0.827637
0.881348
0.939941
0.937500
0.949707
0.937500
0.925293
0.932617
0.935059
0.993652
1.071777
1.147461
1.210938
1.240234
1.259766
1.247559
1.228027
1.220703
1.232910
1.289062
1.364746
1.445312
1.501465
1.533203
1.540527
1.518555
1.491699
1.464844
1.459961
1.477051
1.516113
1.547852
1.552734
1.552734
1.499023
1.413574
1.318359
1.220703
1.164551
1.103516
1.079102
1.049805
1.000977
0.966797
0.866699
0.759277
0.646973
0.549316
0.502930
0.434570
0.422363
0.417480
0.397949
0.390625
0.292969
0.207520
0.124512
0.058594
0.039062
-0.002441
0.009766
0.017090
0.014648
0.024414
-0.034180
-0.090332
-0.148926
-0.185547
-0.190430
-0.200195
-0.163574
-0.126953
-0.104980
-0.085449
-0.126953
-0.166016
-0.212402
-0.236816
-0.236816
-0.236816
-0.200195
-0.170898
-0.144043
-0.129395
-0.156250
-0.195312
-0.239258
-0.261230
-0.263672
-0.246582
-0.209961
-0.180664
-0.153809
-0.144043
-0.156250
-0.212402
-0.261230
-0.288086
-0.290527
-0.244141
-0.202637
-0.151367
-0.112305
-0.087891
-0.075684
-0.131836
-0.175781
-0.205078
-0.209961
-0.173340
-0.146484
-0.104980
-0.080566
-0.063477
-0.051270
-0.129395
-0.173340
-0.200195
-0.200195
-0.168457
-0.129395
-0.090332
-0.061035
-0.041504
-0.043945
-0.090332
-0.134277
-0.163574
-0.163574
-0.131836
-0.104980
-0.063477
-0.034180
-0.014648
-0.012207
-0.075684
-0.126953
-0.163574
-0.166016
-0.144043
-0.119629
-0.085449
-0.063477
-0.046387
-0.061035
-0.119629
-0.170898
-0.207520
-0.197754
-0.166016
-0.126953
-0.087891
-0.070801
-0.058594
-0.075684
-0.122070
-0.183105
-0.214844
-0.209961
-0.178223
-0.124512
-0.097656
-0.073242
-0.056152
-0.070801
-0.100098
-0.170898
-0.207520
-0.212402
-0.190430
-0.124512
-0.104980
-0.078125
-0.063477
-0.078125
-0.100098
-0.190430
-0.222168
-0.222168
-0.195312
-0.126953
-0.129395
-0.100098
-0.085449
-0.097656
-0.119629
-0.205078
-0.236816
-0.231934
-0.200195
-0.134277
-0.136719
-0.114746
-0.097656
-0.102539
-0.124512
-0.200195
-0.227051
-0.231934
-0.202637
-0.153809
-0.144043
-0.119629
-0.102539
-0.104980
-0.136719
-0.209961
-0.246582
-0.251465
-0.214844
-0.153809
