# OpenSignals Text File Format. Version 1
# {"98:D3:31:B2:BC:6F": {"sensor": ["RAW", "RAW", "RAW", "RAW", "RAW", "RAW"], "device name": "98:D3:31:B2:BC:6F", "column": ["nSeq", "I1", "I2", "I3", "I4", "A1", "A2", "A3", "A4", "A5", "A6"], "sync interval": 2, "time": "12:34:40.213", "comments": "", "device connection": "/dev/tty.bitalino-DevB", "channels": [1, 2, 3, 4, 5, 6], "keywords": "", "convertedValues": 0, "mode": 0, "digital IO": [0, 0, 0, 0, 1, 1, 1, 1], "firmware version": 771, "device": "bitalino", "position": 0, "sampling rate": 1000, "label": ["A1", "A2", "A3", "A4", "A5", "A6"], "resolution": [4, 1, 1, 1, 1, 10, 10, 10, 10, 6, 6], "date": "2020-2-28", "special": [{}, {}, {}, {}, {}, {}]}}
# EndOfHeader
1	0	0	0	0	28	24	585	307	1	34	
2	0	0	0	0	24	24	588	307	1	34	
3	0	0	0	0	28	24	588	307	1	34	
4	0	0	0	0	35	31	588	307	2	34	
5	0	0	0	0	28	24	588	307	1	34	
6	0	0	0	0	31	28	585	307	1	34	
7	0	0	0	0	28	24	583	307	1	34	
8	0	0	0	0	28	24	583	307	1	34	
9	0	0	0	0	28	24	583	307	1	34	
10	0	0	0	0	28	24	583	307	1	34	
11	0	0	0	0	24	24	583	307	1	34	
12	0	0	0	0	28	24	582	307	1	34	
13	0	0	0	0	24	24	582	307	1	34	
14	0	0	0	0	24	24	580	307	1	34	
15	0	0	0	0	35	31	579	307	2	34	
0	0	0	0	0	28	24	582	307	1	34	
1	0	0	0	0	35	31	582	307	2	34	
2	0	0	0	0	28	24	583	307	1	34	
3	0	0	0	0	31	28	583	307	1	34	
4	0	0	0	0	28	24	583	307	1	34	
5	0	0	0	0	31	28	583	307	1	34	
6	0	0	0	0	28	24	583	307	1	34	
7	0	0	0	0	28	24	583	307	1	34	
8	0	0	0	0	35	31	583	307	2	34	
9	0	0	0	0	28	24	583	307	1	34	
10	0	0	0	0	28	24	583	307	1	34	
11	0	0	0	0	31	28	583	307	1	34	
12	0	0	0	0	28	24	583	307	1	34	
13	0	0	0	0	31	28	583	307	1	34	
14	0	0	0	0	28	24	582	307	1	34	
15	0	0	0	0	28	24	579	307	1	34	
0	0	0	0	0	28	24	579	307	1	34	
1	0	0	0	0	35	31	575	307	2	34	
2	0	0	0	0	24	24	575	307	1	34	
3	0	0	0	0	31	28	575	307	1	34	
4	0	0	0	0	28	24	575	307	1	34	
5	0	0	0	0	31	28	575	307	1	34	
6	0	0	0	0	35	31	575	307	2	34	
7	0	0	0	0	31	28	579	307	1	34	
8	0	0	0	0	28	24	579	307	1	34	
9	0	0	0	0	28	24	579	307	1	34	
10	0	0	0	0	28	24	576	307	1	34	
11	0	0	0	0	28	24	579	307	1	34	
12	0	0	0	0	28	24	579	307	1	34	
13	0	0	0	0	28	24	579	307	1	34	
14	0	0	0	0	25	24	579	307	1	34	
15	0	0	0	0	31	28	575	307	1	34	
0	0	0	0	0	28	24	575	307	1	34	
1	0	0	0	0	35	31	575	307	2	34	
2	0	0	0	0	28	24	575	307	1	34	
3	0	0	0	0	28	24	575	307	1	34	
4	0	0	0	0	28	24	575	307	1	34	
5	0	0	0	0	31	28	575	307	1	34	
6	0	0	0	0	28	24	575	307	1	34	
7	0	0	0	0	31	28	575	307	1	34	
8	0	0	0	0	28	24	575	307	1	34	
9	0	0	0	0	28	24	575	307	1	34	
10	0	0	0	0	28	24	575	307	1	34	
11	0	0	0	0	35	31	575	307	2	34	
12	0	0	0	0	24	24	575	307	1	34	
13	0	0	0	0	28	24	575	307	1	34	
14	0	0	0	0	24	24	575	307	1	34	
15	0	0	0	0	35	31	575	307	2	34	
0	0	0	0	0	28	24	575	307	1	34	
1	0	0	0	0	28	24	575	307	1	34	
2	0	0	0	0	31	28	575	307	1	34	
3	0	0	0	0	28	24	575	307	1	34	
4	0	0	0	0	28	24	575	307	1	34	
5	0	0	0	0	28	24	575	307	1	34	
6	0	0	0	0	24	24	574	307	1	34	
7	0	0	0	0	28	24	572	307	1	34	
8	0	0	0	0	28	24	572	307	1	34	
9	0	0	0	0	35	31	572	307	2	34	
10	0	0	0	0	28	24	572	307	1	34	
11	0	0	0	0	31	28	572	307	1	34	
12	0	0	0	0	35	31	572	307	2	34	
13	0	0	0	0	28	24	572	307	1	34	
14	0	0	0	0	24	24	572	307	1	34	
15	0	0	0	0	28	24	572	307	1	34	
0	0	0	0	0	24	24	574	307	1	34	
1	0	0	0	0	24	24	574	307	1	34	
2	0	0	0	0	28	24	575	307	1	34	
3	0	0	0	0	28	24	575	307	1	34	
4	0	0	0	0	28	24	575	307	1	34	
5	0	0	0	0	28	24	575	307	1	34	
6	0	0	0	0	24	24	575	307	1	34	
7	0	0	0	0	28	24	574	307	1	34	
8	0	0	0	0	28	24	574	307	1	34	
9	0	0	0	0	28	24	572	307	1	34	
10	0	0	0	0	31	28	572	307	1	34	
11	0	0	0	0	35	31	569	307	2	34	
12	0	0	0	0	31	28	568	307	1	34	
13	0	0	0	0	28	24	568	307	1	34	
14	0	0	0	0	28	24	568	307	1	34	
15	0	0	0	0	28	24	568	307	1	34	
0	0	0	0	0	31	28	568	307	1	34	
1	0	0	0	0	31	28	568	307	1	34	
2	0	0	0	0	28	24	568	307	1	34	
3	0	0	0	0	28	28	568	307	2	34	
4	0	0	0	0	28	24	569	307	1	34	
5	0	0	0	0	24	24	569	307	1	34	
6	0	0	0	0	35	31	569	307	2	34	
7	0	0	0	0	31	28	572	307	1	34	
8	0	0	0	0	28	24	572	307	1	34	
9	0	0	0	0	28	24	572	307	1	34	
10	0	0	0	0	28	24	572	307	1	34	
11	0	0	0	0	28	24	572	307	1	34	
12	0	0	0	0	28	24	569	307	1	34	
13	0	0	0	0	28	24	569	307	1	34	
14	0	0	0	0	25	24	568	307	1	34	
15	0	0	0	0	28	24	568	307	1	34	
0	0	0	0	0	24	24	568	307	1	34	
1	0	0	0	0	31	28	568	307	1	34	
2	0	0	0	0	31	28	568	307	1	34	
3	0	0	0	0	28	24	568	307	1	34	
4	0	0	0	0	28	24	568	307	1	34	
5	0	0	0	0	28	24	568	307	1	34	
6	0	0	0	0	31	28	568	307	1	34	
7	0	0	0	0	28	24	568	307	1	34	
8	0	0	0	0	28	24	568	307	1	34	
9	0	0	0	0	28	24	568	307	1	34	
10	0	0	0	0	28	24	568	307	1	34	
11	0	0	0	0	24	24	568	307	1	34	
12	0	0	0	0	28	24	568	307	1	34	
13	0	0	0	0	28	24	568	307	1	34	
14	0	0	0	0	28	24	568	307	1	34	
15	0	0	0	0	28	24	568	307	1	34	
0	0	0	0	0	28	24	568	307	1	34	
1	0	0	0	0	31	28	568	307	1	34	
2	0	0	0	0	28	24	568	307	1	34	
3	0	0	0	0	31	28	568	307	1	34	
4	0	0	0	0	28	24	568	307	1	34	
5	0	0	0	0	28	24	568	307	1	34	
6	0	0	0	0	35	31	568	307	2	34	
7	0	0	0	0	28	24	569	307	1	34	
8	0	0	0	0	28	24	572	307	1	34	
9	0	0	0	0	28	24	572	307	1	34	
10	0	0	0	0	24	24	572	307	1	34	
11	0	0	0	0	28	24	572	307	1	34	
12	0	0	0	0	28	24	572	307	1	34	
13	0	0	0	0	31	28	572	307	1	34	
14	0	0	0	0	28	28	574	307	1	34	
15	0	0	0	0	31	28	574	307	1	34	
0	0	0	0	0	35	31	574	307	2	34	
1	0	0	0	0	35	31	574	307	2	34	
2	0	0	0	0	28	24	574	307	1	34	
3	0	0	0	0	28	24	572	307	1	34	
4	0	0	0	0	28	24	572	307	1	34	
5	0	0	0	0	28	24	572	307	1	34	
6	0	0	0	0	31	28	572	307	1	34	
7	0	0	0	0	28	24	572	307	1	34	
8	0	0	0	0	28	24	569	307	1	34	
9	0	0	0	0	35	31	569	307	2	34	
10	0	0	0	0	31	28	569	307	1	34	
11	0	0	0	0	24	24	569	307	1	34	
12	0	0	0	0	28	24	569	307	1	34	
13	0	0	0	0	28	24	569	307	1	34	
14	0	0	0	0	28	24	572	307	1	34	
15	0	0	0	0	31	28	572	307	1	34	
0	0	0	0	0	31	28	572	307	1	34	
1	0	0	0	0	31	28	572	307	1	34	
2	0	0	0	0	28	24	572	307	1	34	
3	0	0	0	0	24	24	572	307	1	34	
4	0	0	0	0	31	28	572	307	1	34	
5	0	0	0	0	28	24	572	307	1	34	
6	0	0	0	0	28	24	572	307	1	34	
7	0	0	0	0	31	28	572	307	1	34	
8	0	0	0	0	28	24	572	307	1	34	
9	0	0	0	0	28	24	569	307	1	34	
10	0	0	0	0	31	28	568	307	1	34	
11	0	0	0	0	24	24	568	307	1	34	
12	0	0	0	0	28	24	568	307	1	34	
13	0	0	0	0	24	24	568	307	1	34	
14	0	0	0	0	24	24	568	307	1	34	
15	0	0	0	0	31	28	568	307	1	34	
0	0	0	0	0	28	24	568	307	1	34	
1	0	0	0	0	28	24	568	307	1	34	
2	0	0	0	0	31	28	568	307	1	34	
3	0	0	0	0	28	24	568	307	1	34	
4	0	0	0	0	28	24	568	307	1	34	
5	0	0	0	0	28	24	568	307	1	34	
6	0	0	0	0	28	24	568	307	1	34	
7	0	0	0	0	31	28	568	307	1	34	
8	0	0	0	0	28	24	568	308	1	34	
9	0	0	0	0	28	24	568	307	1	34	
10	0	0	0	0	31	28	568	307	1	34	
11	0	0	0	0	31	28	568	307	1	34	
12	0	0	0	0	31	28	568	307	1	34	
13	0	0	0	0	31	28	566	307	1	34	
14	0	0	0	0	31	28	563	307	1	34	
15	0	0	0	0	24	24	563	307	1	34	
0	0	0	0	0	28	24	563	307	1	34	
1	0	0	0	0	35	31	563	307	2	34	
2	0	0	0	0	28	24	563	307	1	34	
3	0	0	0	0	28	24	563	307	1	34	
4	0	0	0	0	28	24	566	307	1	34	
5	0	0	0	0	31	28	568	307	1	34	
6	0	0	0	0	35	31	568	307	2	34	
7	0	0	0	0	28	22	568	307	2	34	
8	0	0	0	0	28	24	568	307	1	34	
9	0	0	0	0	31	28	568	307	1	34	
10	0	0	0	0	28	24	568	307	1	34	
11	0	0	0	0	28	24	568	307	1	34	
12	0	0	0	0	31	28	568	307	1	34	
13	0	0	0	0	28	24	568	308	1	34	
14	0	0	0	0	28	28	568	307	1	34	
15	0	0	0	0	28	24	568	307	1	34	
0	0	0	0	0	28	24	568	307	1	34	
1	0	0	0	0	31	28	563	307	1	34	
2	0	0	0	0	35	31	563	307	2	34	
3	0	0	0	0	28	24	563	307	1	34	
4	0	0	0	0	28	24	563	307	1	34	
5	0	0	0	0	31	28	561	307	1	34	
6	0	0	0	0	28	24	561	307	1	34	
7	0	0	0	0	28	24	561	308	1	34	
8	0	0	0	0	28	24	561	307	1	34	
9	0	0	0	0	25	24	563	307	1	34	
10	0	0	0	0	28	24	563	307	1	34	
11	0	0	0	0	24	24	563	307	1	34	
12	0	0	0	0	28	24	563	307	1	34	
13	0	0	0	0	28	24	563	310	1	34	
14	0	0	0	0	28	24	566	307	1	34	
15	0	0	0	0	28	24	566	307	1	34	
0	0	0	0	0	24	24	566	307	1	34	
1	0	0	0	0	28	24	566	307	1	34	
2	0	0	0	0	28	24	563	307	1	34	
3	0	0	0	0	31	28	563	307	1	34	
4	0	0	0	0	28	24	563	307	1	34	
5	0	0	0	0	28	24	563	307	1	34	
6	0	0	0	0	31	28	561	307	1	34	
7	0	0	0	0	28	24	561	307	1	34	
8	0	0	0	0	28	24	560	307	1	34	
9	0	0	0	0	31	28	560	307	1	34	
10	0	0	0	0	28	24	560	307	1	34	
11	0	0	0	0	28	24	560	307	1	34	
12	0	0	0	0	31	28	560	307	1	34	
13	0	0	0	0	31	28	560	307	1	34	
14	0	0	0	0	30	28	561	307	1	34	
15	0	0	0	0	31	28	561	307	1	34	
0	0	0	0	0	28	24	563	307	1	34	
1	0	0	0	0	31	28	563	307	1	34	
2	0	0	0	0	31	28	563	307	1	34	
3	0	0	0	0	28	24	563	307	1	34	
4	0	0	0	0	31	28	563	307	1	34	
5	0	0	0	0	31	28	563	307	1	34	
6	0	0	0	0	28	24	563	307	1	34	
7	0	0	0	0	28	24	563	307	1	34	
8	0	0	0	0	31	28	561	307	1	34	
9	0	0	0	0	25	24	561	307	1	34	
10	0	0	0	0	31	28	560	307	1	34	
11	0	0	0	0	35	31	560	307	2	34	
12	0	0	0	0	28	24	560	307	1	34	
13	0	0	0	0	31	28	560	307	1	34	
14	0	0	0	0	31	28	560	307	1	34	
15	0	0	0	0	28	24	560	307	1	34	
0	0	0	0	0	35	31	558	307	2	34	
1	0	0	0	0	28	24	560	307	1	34	
2	0	0	0	0	28	24	560	307	1	34	
3	0	0	0	0	31	28	560	307	1	34	
4	0	0	0	0	28	24	560	307	1	34	
5	0	0	0	0	28	24	560	307	1	34	
6	0	0	0	0	35	31	560	307	2	34	
7	0	0	0	0	31	28	560	307	1	34	
8	0	0	0	0	28	24	560	307	1	34	
9	0	0	0	0	28	24	560	307	1	34	
10	0	0	0	0	31	28	560	307	1	34	
11	0	0	0	0	31	28	560	307	1	34	
12	0	0	0	0	31	28	560	307	1	34	
13	0	0	0	0	28	24	560	307	1	34	
14	0	0	0	0	28	28	560	307	1	34	
15	0	0	0	0	28	24	558	307	1	34	
0	0	0	0	0	28	24	558	307	1	34	
1	0	0	0	0	28	24	558	307	1	34	
2	0	0	0	0	28	24	556	307	1	34	
3	0	0	0	0	31	28	556	307	1	34	
4	0	0	0	0	31	28	556	307	1	34	
5	0	0	0	0	31	28	556	307	1	34	
6	0	0	0	0	28	24	556	307	1	34	
7	0	0	0	0	28	24	558	307	1	34	
8	0	0	0	0	31	28	558	307	1	34	
9	0	0	0	0	28	24	558	307	1	34	
10	0	0	0	0	35	31	558	307	2	34	
11	0	0	0	0	35	31	558	307	2	34	
12	0	0	0	0	24	24	558	307	1	34	
13	0	0	0	0	35	31	556	307	2	34	
14	0	0	0	0	28	24	556	307	1	34	
15	0	0	0	0	28	24	556	307	1	34	
0	0	0	0	0	31	28	556	307	1	34	
1	0	0	0	0	28	24	556	307	1	34	
2	0	0	0	0	28	24	556	307	1	34	
3	0	0	0	0	19	28	556	307	1	34	
4	0	0	0	0	28	24	553	307	1	34	
5	0	0	0	0	35	31	551	307	2	34	
6	0	0	0	0	24	24	551	307	1	34	
7	0	0	0	0	35	31	551	307	2	34	
8	0	0	0	0	28	24	551	307	1	34	
9	0	0	0	0	28	24	551	307	1	34	
10	0	0	0	0	28	24	551	307	1	34	
11	0	0	0	0	31	24	553	307	2	34	
12	0	0	0	0	31	28	553	307	1	34	
13	0	0	0	0	31	28	556	307	1	34	
14	0	0	0	0	24	24	556	307	1	34	
15	0	0	0	0	35	31	556	307	2	34	
0	0	0	0	0	31	28	556	307	1	34	
1	0	0	0	0	35	31	556	307	2	34	
2	0	0	0	0	28	24	558	307	1	34	
3	0	0	0	0	28	24	558	307	1	34	
4	0	0	0	0	24	24	558	307	1	34	
5	0	0	0	0	28	24	558	307	1	34	
6	0	0	0	0	35	31	556	307	2	34	
7	0	0	0	0	28	24	558	307	1	34	
8	0	0	0	0	28	24	558	307	1	34	
9	0	0	0	0	28	24	558	307	1	34	
10	0	0	0	0	28	24	558	307	1	34	
11	0	0	0	0	31	28	558	307	1	34	
12	0	0	0	0	31	28	558	307	1	34	
13	0	0	0	0	28	24	558	307	1	34	
14	0	0	0	0	24	24	559	307	1	34	
15	0	0	0	0	28	24	560	307	1	34	
0	0	0	0	0	31	28	560	307	1	34	
1	0	0	0	0	35	31	560	307	2	34	
2	0	0	0	0	31	28	560	307	1	34	
3	0	0	0	0	31	28	560	307	1	34	
4	0	0	0	0	31	28	560	307	1	34	
5	0	0	0	0	28	24	560	307	1	34	
6	0	0	0	0	31	28	560	307	1	34	
7	0	0	0	0	31	28	560	310	1	34	
8	0	0	0	0	31	28	560	308	1	34	
9	0	0	0	0	28	24	560	310	1	34	
10	0	0	0	0	31	28	558	308	1	34	
11	0	0	0	0	31	28	558	308	1	34	
12	0	0	0	0	31	28	558	307	1	34	
13	0	0	0	0	28	24	558	307	1	34	
14	0	0	0	0	25	24	558	307	1	34	
15	0	0	0	0	31	28	558	307	1	34	
0	0	0	0	0	28	24	558	307	1	34	
1	0	0	0	0	28	24	558	307	1	34	
2	0	0	0	0	31	28	559	307	1	34	
3	0	0	0	0	28	24	560	307	1	34	
4	0	0	0	0	28	24	560	307	1	34	
5	0	0	0	0	31	28	560	307	1	34	
6	0	0	0	0	28	24	560	307	1	34	
7	0	0	0	0	28	24	560	307	1	34	
8	0	0	0	0	28	24	560	307	1	34	
9	0	0	0	0	28	24	560	307	1	34	
10	0	0	0	0	28	24	560	307	1	34	
11	0	0	0	0	31	28	560	307	1	34	
12	0	0	0	0	31	28	560	307	1	34	
13	0	0	0	0	28	24	560	307	1	34	
14	0	0	0	0	28	24	560	307	1	34	
15	0	0	0	0	28	24	560	307	1	34	
0	0	0	0	0	31	28	558	307	1	34	
1	0	0	0	0	24	24	558	307	1	34	
2	0	0	0	0	28	24	558	307	1	34	
3	0	0	0	0	35	31	556	307	2	34	
4	0	0	0	0	28	24	558	307	1	34	
5	0	0	0	0	28	24	558	307	1	34	
6	0	0	0	0	35	31	558	307	2	34	
7	0	0	0	0	28	24	558	307	1	34	
8	0	0	0	0	31	28	558	307	1	34	
9	0	0	0	0	31	28	560	307	1	34	
10	0	0	0	0	24	24	560	307	1	34	
11	0	0	0	0	31	28	560	307	1	34	
12	0	0	0	0	35	31	558	307	2	34	
13	0	0	0	0	28	24	558	307	1	34	
14	0	0	0	0	28	28	556	307	1	34	
15	0	0	0	0	28	24	556	307	1	34	
0	0	0	0	0	31	28	556	307	1	34	
1	0	0	0	0	35	31	553	307	2	34	
2	0	0	0	0	28	24	551	307	1	34	
3	0	0	0	0	28	24	551	307	1	34	
4	0	0	0	0	28	24	551	307	1	34	
5	0	0	0	0	28	24	551	307	1	34	
6	0	0	0	0	31	28	551	307	1	34	
7	0	0	0	0	28	24	551	307	1	34	
8	0	0	0	0	28	24	551	307	1	34	
9	0	0	0	0	31	28	551	307	1	34	
10	0	0	0	0	28	24	551	307	1	34	
11	0	0	0	0	35	31	551	307	2	34	
12	0	0	0	0	28	24	553	307	1	34	
13	0	0	0	0	24	24	556	307	1	34	
14	0	0	0	0	28	24	556	307	1	34	
15	0	0	0	0	28	24	556	307	1	34	
0	0	0	0	0	24	24	556	307	1	34	
1	0	0	0	0	28	24	553	307	1	34	
2	0	0	0	0	24	24	551	307	1	34	
3	0	0	0	0	28	24	551	307	1	34	
4	0	0	0	0	24	24	551	307	1	34	
5	0	0	0	0	28	24	551	310	1	34	
6	0	0	0	0	31	28	551	310	1	34	
7	0	0	0	0	28	24	551	310	1	34	
8	0	0	0	0	28	24	551	308	1	34	
9	0	0	0	0	31	28	551	308	1	34	
10	0	0	0	0	28	24	551	307	1	34	
11	0	0	0	0	24	24	551	307	1	34	
12	0	0	0	0	28	24	551	308	1	34	
13	0	0	0	0	35	31	551	310	2	34	
14	0	0	0	0	28	24	551	310	1	34	
15	0	0	0	0	28	22	553	310	2	34	
0	0	0	0	0	30	25	556	308	1	34	
1	0	0	0	0	35	31	556	310	2	34	
2	0	0	0	0	31	28	558	310	1	34	
3	0	0	0	0	28	24	560	310	1	34	
4	0	0	0	0	28	24	560	310	1	34	
5	0	0	0	0	28	24	560	307	1	34	
6	0	0	0	0	28	24	560	307	1	34	
7	0	0	0	0	35	31	560	307	2	34	
8	0	0	0	0	28	24	561	307	1	34	
9	0	0	0	0	28	24	561	307	1	34	
10	0	0	0	0	31	28	561	307	1	34	
11	0	0	0	0	31	28	561	307	1	34	
12	0	0	0	0	28	24	563	307	1	34	
13	0	0	0	0	28	24	563	307	1	34	
14	0	0	0	0	28	24	563	307	1	34	
15	0	0	0	0	28	24	563	307	1	34	
0	0	0	0	0	28	24	563	307	1	34	
1	0	0	0	0	28	24	563	307	1	34	
2	0	0	0	0	28	24	566	307	1	34	
3	0	0	0	0	31	28	568	307	1	34	
4	0	0	0	0	31	28	568	307	1	34	
5	0	0	0	0	28	24	568	307	1	34	
6	0	0	0	0	31	28	568	307	1	34	
7	0	0	0	0	28	24	569	307	1	34	
8	0	0	0	0	28	24	572	307	1	34	
9	0	0	0	0	24	24	572	307	1	34	
10	0	0	0	0	31	28	572	307	1	34	
11	0	0	0	0	35	31	572	307	2	34	
12	0	0	0	0	28	24	572	307	1	34	
13	0	0	0	0	31	28	572	307	1	34	
14	0	0	0	0	24	24	572	307	1	34	
15	0	0	0	0	31	28	569	307	1	34	
0	0	0	0	0	28	24	569	307	1	34	
1	0	0	0	0	35	31	569	307	2	34	
2	0	0	0	0	28	24	572	307	1	34	
3	0	0	0	0	24	24	572	307	1	34	
4	0	0	0	0	28	24	572	307	1	34	
5	0	0	0	0	31	28	572	307	1	34	
6	0	0	0	0	35	31	572	307	2	34	
7	0	0	0	0	31	28	574	307	1	34	
8	0	0	0	0	31	28	575	307	1	34	
9	0	0	0	0	31	28	575	307	1	34	
10	0	0	0	0	31	28	575	307	1	34	
11	0	0	0	0	24	24	575	307	1	34	
12	0	0	0	0	28	24	575	307	1	34	
13	0	0	0	0	24	24	575	307	1	34	
14	0	0	0	0	31	28	575	308	1	34	
15	0	0	0	0	28	24	575	308	1	34	
0	0	0	0	0	28	24	575	307	1	34	
1	0	0	0	0	28	24	575	307	1	34	
2	0	0	0	0	28	24	575	307	1	34	
3	0	0	0	0	24	24	575	307	1	34	
4	0	0	0	0	31	28	575	307	1	34	
5	0	0	0	0	28	24	575	307	1	34	
6	0	0	0	0	31	28	575	310	1	34	
7	0	0	0	0	31	28	575	310	1	34	
8	0	0	0	0	28	24	575	307	1	34	
9	0	0	0	0	28	24	575	308	1	34	
10	0	0	0	0	28	24	575	308	1	34	
11	0	0	0	0	28	24	575	310	1	34	
12	0	0	0	0	31	28	575	308	1	34	
13	0	0	0	0	31	28	575	308	1	34	
14	0	0	0	0	24	24	575	308	1	34	
15	0	0	0	0	28	24	579	307	1	34	
0	0	0	0	0	31	28	579	307	1	34	
1	0	0	0	0	31	28	579	307	1	34	
2	0	0	0	0	31	28	579	307	1	34	
3	0	0	0	0	28	24	580	307	1	34	
4	0	0	0	0	31	28	579	307	1	34	
5	0	0	0	0	28	24	579	307	1	34	
6	0	0	0	0	31	28	575	307	1	34	
7	0	0	0	0	28	24	575	307	1	34	
8	0	0	0	0	28	24	575	307	1	34	
9	0	0	0	0	24	24	575	307	1	34	
10	0	0	0	0	28	24	575	307	1	34	
11	0	0	0	0	35	31	575	307	2	34	
12	0	0	0	0	35	31	575	307	2	34	
13	0	0	0	0	28	24	575	307	1	34	
14	0	0	0	0	28	24	579	307	1	34	
15	0	0	0	0	28	24	579	307	1	34	
0	0	0	0	0	28	24	582	307	1	34	
1	0	0	0	0	28	24	583	307	1	34	
2	0	0	0	0	28	24	583	307	1	34	
3	0	0	0	0	31	28	583	307	1	34	
4	0	0	0	0	28	24	583	307	1	34	
5	0	0	0	0	28	24	583	307	1	34	
6	0	0	0	0	31	28	583	307	1	34	
7	0	0	0	0	28	24	583	307	1	34	
8	0	0	0	0	31	28	583	307	1	34	
9	0	0	0	0	28	24	583	307	1	34	
10	0	0	0	0	31	28	582	307	1	34	
11	0	0	0	0	35	31	579	307	2	34	
12	0	0	0	0	35	31	575	307	2	34	
13	0	0	0	0	28	24	575	307	1	34	
14	0	0	0	0	24	24	575	307	1	34	
15	0	0	0	0	28	24	575	307	1	34	
0	0	0	0	0	24	24	575	307	1	34	
1	0	0	0	0	35	31	575	307	2	34	
2	0	0	0	0	28	24	575	307	1	34	
3	0	0	0	0	28	22	575	307	2	34	
4	0	0	0	0	28	24	575	307	1	34	
5	0	0	0	0	28	24	579	307	1	34	
6	0	0	0	0	35	31	579	307	2	34	
7	0	0	0	0	28	24	582	307	1	34	
8	0	0	0	0	24	24	582	307	1	34	
9	0	0	0	0	28	24	582	307	1	34	
10	0	0	0	0	24	24	582	307	1	34	
11	0	0	0	0	31	28	582	307	1	34	
12	0	0	0	0	31	28	579	307	1	34	
13	0	0	0	0	28	24	579	307	1	34	
14	0	0	0	0	28	24	579	307	1	34	
15	0	0	0	0	28	24	575	307	1	34	
0	0	0	0	0	28	24	575	307	1	34	
1	0	0	0	0	28	24	575	308	1	34	
2	0	0	0	0	28	24	575	307	1	34	
3	0	0	0	0	31	28	575	308	1	34	
4	0	0	0	0	28	24	575	310	1	34	
5	0	0	0	0	28	24	575	308	1	34	
6	0	0	0	0	35	31	575	310	2	34	
7	0	0	0	0	31	28	575	307	1	34	
8	0	0	0	0	28	24	575	308	1	34	
9	0	0	0	0	28	24	575	307	1	34	
10	0	0	0	0	31	28	575	307	1	34	
11	0	0	0	0	28	24	579	307	1	34	
12	0	0	0	0	28	24	579	307	1	34	
13	0	0	0	0	28	24	575	307	1	34	
14	0	0	0	0	33	31	575	307	2	34	
15	0	0	0	0	31	28	575	307	1	34	
0	0	0	0	0	31	28	575	307	1	34	
1	0	0	0	0	24	24	575	307	1	34	
2	0	0	0	0	28	24	575	307	1	34	
3	0	0	0	0	28	24	575	307	1	34	
4	0	0	0	0	28	24	575	307	1	34	
5	0	0	0	0	24	24	574	307	1	34	
6	0	0	0	0	28	24	574	307	1	34	
7	0	0	0	0	24	24	574	307	1	34	
8	0	0	0	0	28	24	574	307	1	34	
9	0	0	0	0	24	24	575	307	1	34	
10	0	0	0	0	28	24	575	307	1	34	
11	0	0	0	0	35	31	575	307	2	34	
12	0	0	0	0	28	24	575	307	1	34	
13	0	0	0	0	24	24	575	307	1	34	
14	0	0	0	0	28	24	575	307	1	34	
15	0	0	0	0	31	28	575	307	1	34	
0	0	0	0	0	28	24	575	307	1	34	
1	0	0	0	0	28	24	575	307	1	34	
2	0	0	0	0	31	28	575	307	1	34	
3	0	0	0	0	24	24	575	307	1	34	
4	0	0	0	0	31	28	575	307	1	34	
5	0	0	0	0	31	28	574	307	1	34	
6	0	0	0	0	35	31	572	307	1	34	
7	0	0	0	0	28	24	572	307	1	34	
8	0	0	0	0	31	28	572	307	1	34	
9	0	0	0	0	28	24	572	307	1	34	
10	0	0	0	0	28	24	572	307	1	34	
11	0	0	0	0	28	24	572	307	1	34	
12	0	0	0	0	28	24	572	307	1	34	
13	0	0	0	0	24	24	572	307	1	34	
14	0	0	0	0	24	24	572	307	1	34	
15	0	0	0	0	24	24	574	307	1	34	
0	0	0	0	0	31	28	574	307	1	34	
1	0	0	0	0	24	24	574	307	1	34	
2	0	0	0	0	28	24	575	307	1	34	
3	0	0	0	0	28	24	575	307	1	34	
4	0	0	0	0	35	31	575	307	2	34	
5	0	0	0	0	31	28	575	307	1	34	
6	0	0	0	0	28	24	575	307	1	34	
7	0	0	0	0	28	24	575	307	1	34	
8	0	0	0	0	24	24	575	307	1	34	
9	0	0	0	0	31	28	575	307	1	34	
10	0	0	0	0	31	28	574	307	1	34	
11	0	0	0	0	35	31	574	307	2	34	
12	0	0	0	0	31	28	574	307	1	34	
13	0	0	0	0	28	24	574	307	1	34	
14	0	0	0	0	31	28	574	307	1	34	
15	0	0	0	0	28	24	574	307	1	34	
0	0	0	0	0	28	24	574	307	1	34	
1	0	0	0	0	31	28	574	307	1	34	
2	0	0	0	0	28	24	574	307	1	34	
3	0	0	0	0	28	24	574	307	1	34	
4	0	0	0	0	28	24	574	307	1	34	
5	0	0	0	0	31	28	574	307	1	34	
6	0	0	0	0	24	24	574	307	1	34	
7	0	0	0	0	28	24	574	307	1	34	
8	0	0	0	0	28	24	574	307	1	34	
9	0	0	0	0	31	28	574	307	1	34	
10	0	0	0	0	24	24	574	307	1	34	
11	0	0	0	0	28	24	572	307	1	34	
12	0	0	0	0	35	31	572	307	2	34	
13	0	0	0	0	28	24	572	307	1	34	
14	0	0	0	0	24	24	572	307	1	34	
15	0	0	0	0	28	24	569	307	1	34	
0	0	0	0	0	28	24	569	307	1	34	
1	0	0	0	0	31	28	569	307	1	34	
2	0	0	0	0	31	28	569	307	1	34	
3	0	0	0	0	28	24	569	307	1	34	
4	0	0	0	0	28	24	569	307	1	34	
5	0	0	0	0	28	24	572	307	1	34	
6	0	0	0	0	28	24	572	307	1	34	
7	0	0	0	0	31	24	572	307	2	34	
8	0	0	0	0	31	30	572	307	1	34	
9	0	0	0	0	28	24	572	307	1	34	
10	0	0	0	0	28	24	574	307	1	34	
11	0	0	0	0	24	24	574	307	1	34	
12	0	0	0	0	31	28	574	307	1	34	
13	0	0	0	0	24	24	572	307	1	34	
14	0	0	0	0	28	24	572	307	1	34	
15	0	0	0	0	24	24	572	307	1	34	
0	0	0	0	0	28	24	569	307	1	34	
1	0	0	0	0	31	28	568	307	1	34	
2	0	0	0	0	24	24	568	307	1	34	
3	0	0	0	0	28	24	568	307	1	34	
4	0	0	0	0	24	24	568	307	1	34	
5	0	0	0	0	28	24	568	307	1	34	
6	0	0	0	0	35	31	568	307	2	34	
7	0	0	0	0	28	24	568	307	1	34	
8	0	0	0	0	28	24	568	307	1	34	
9	0	0	0	0	28	24	568	307	1	34	
10	0	0	0	0	24	24	568	307	1	34	
11	0	0	0	0	35	31	568	307	2	34	
12	0	0	0	0	28	24	569	307	1	34	
13	0	0	0	0	28	24	569	307	1	34	
14	0	0	0	0	28	28	569	307	1	34	
15	0	0	0	0	28	24	569	307	1	34	
0	0	0	0	0	31	28	569	307	1	34	
1	0	0	0	0	35	31	568	307	2	34	
2	0	0	0	0	28	24	568	307	1	34	
3	0	0	0	0	31	28	568	307	1	34	
4	0	0	0	0	28	24	568	307	1	34	
5	0	0	0	0	28	24	568	307	1	34	
6	0	0	0	0	31	28	564	307	1	34	
7	0	0	0	0	31	28	563	307	1	34	
8	0	0	0	0	31	28	563	308	1	34	
9	0	0	0	0	28	24	563	310	1	34	
10	0	0	0	0	28	24	563	308	1	34	
11	0	0	0	0	35	31	563	307	2	34	
12	0	0	0	0	24	24	563	307	1	34	
13	0	0	0	0	28	24	566	307	1	34	
14	0	0	0	0	24	24	568	310	1	34	
15	0	0	0	0	28	24	568	308	1	34	
0	0	0	0	0	28	24	568	308	1	34	
1	0	0	0	0	35	31	568	308	2	34	
2	0	0	0	0	28	24	568	310	1	34	
3	0	0	0	0	28	24	569	310	1	34	
4	0	0	0	0	28	24	569	310	1	34	
5	0	0	0	0	28	24	569	310	1	34	
6	0	0	0	0	31	28	568	310	1	34	
7	0	0	0	0	28	24	568	310	1	34	
8	0	0	0	0	31	28	568	310	1	34	
9	0	0	0	0	31	28	568	310	1	34	
10	0	0	0	0	28	24	568	310	1	34	
11	0	0	0	0	31	28	568	307	1	34	
12	0	0	0	0	28	24	568	307	1	34	
13	0	0	0	0	31	28	566	310	1	34	
14	0	0	0	0	24	24	566	308	1	34	
15	0	0	0	0	28	24	566	308	1	34	
0	0	0	0	0	28	24	566	308	1	34	
1	0	0	0	0	31	28	568	308	1	34	
2	0	0	0	0	31	28	568	307	1	34	
3	0	0	0	0	28	24	568	310	1	34	
4	0	0	0	0	31	28	568	310	1	34	
5	0	0	0	0	28	24	568	308	1	34	
6	0	0	0	0	28	24	568	308	1	34	
7	0	0	0	0	31	28	568	307	1	34	
8	0	0	0	0	24	24	568	307	1	34	
9	0	0	0	0	28	24	568	307	1	34	
10	0	0	0	0	28	24	568	307	1	34	
11	0	0	0	0	35	31	568	307	2	34	
12	0	0	0	0	31	28	568	307	1	34	
13	0	0	0	0	28	24	568	307	1	34	
14	0	0	0	0	28	24	566	307	1	34	
15	0	0	0	0	28	24	563	307	1	34	
0	0	0	0	0	28	24	563	307	1	34	
1	0	0	0	0	28	24	563	307	1	34	
2	0	0	0	0	28	24	563	307	1	34	
3	0	0	0	0	24	24	563	307	1	34	
4	0	0	0	0	24	24	563	307	1	34	
5	0	0	0	0	28	24	563	310	1	34	
6	0	0	0	0	31	28	563	308	1	34	
7	0	0	0	0	28	24	568	307	1	34	
8	0	0	0	0	31	28	568	308	1	34	
9	0	0	0	0	28	24	568	307	1	34	
10	0	0	0	0	28	24	568	307	1	34	
11	0	0	0	0	28	24	568	307	1	34	
12	0	0	0	0	31	28	568	307	1	34	
13	0	0	0	0	28	24	568	307	1	34	
14	0	0	0	0	25	24	568	307	1	34	
15	0	0	0	0	31	28	566	307	1	34	
0	0	0	0	0	28	24	563	308	1	34	
1	0	0	0	0	35	31	563	307	2	34	
2	0	0	0	0	31	28	561	310	1	34	
3	0	0	0	0	31	28	561	308	1	34	
4	0	0	0	0	28	24	560	307	1	34	
5	0	0	0	0	31	28	560	307	1	34	
6	0	0	0	0	28	24	560	307	1	34	
7	0	0	0	0	28	24	560	307	1	34	
8	0	0	0	0	31	28	560	310	1	34	
9	0	0	0	0	28	24	561	307	1	34	
10	0	0	0	0	35	31	561	307	2	34	
11	0	0	0	0	35	28	563	307	2	34	
12	0	0	0	0	28	24	563	307	1	34	
13	0	0	0	0	35	31	563	307	2	34	
14	0	0	0	0	28	24	568	307	1	34	
15	0	0	0	0	24	24	568	307	1	34	
0	0	0	0	0	28	24	568	307	1	34	
1	0	0	0	0	28	24	566	307	1	34	
2	0	0	0	0	31	28	563	307	1	34	
3	0	0	0	0	31	28	563	307	1	34	
4	0	0	0	0	28	24	563	307	1	34	
5	0	0	0	0	28	24	561	307	1	34	
6	0	0	0	0	31	28	560	307	1	34	
7	0	0	0	0	28	24	560	307	1	34	
8	0	0	0	0	28	24	560	307	1	34	
9	0	0	0	0	24	24	560	307	1	34	
10	0	0	0	0	28	24	560	307	1	34	
11	0	0	0	0	24	24	560	307	1	34	
12	0	0	0	0	28	24	560	307	1	34	
13	0	0	0	0	28	24	560	307	1	34	
14	0	0	0	0	24	24	560	307	1	34	
15	0	0	0	0	28	24	560	307	1	34	
0	0	0	0	0	31	28	561	307	1	34	
1	0	0	0	0	35	31	561	307	2	34	
2	0	0	0	0	28	24	563	307	1	34	
3	0	0	0	0	31	28	563	307	1	34	
4	0	0	0	0	28	24	563	307	1	34	
5	0	0	0	0	28	24	563	307	1	34	
6	0	0	0	0	24	24	563	307	1	34	
7	0	0	0	0	28	24	561	307	1	34	
8	0	0	0	0	31	28	560	307	1	34	
9	0	0	0	0	24	24	560	307	1	34	
10	0	0	0	0	28	24	560	307	1	34	
11	0	0	0	0	35	31	560	307	2	34	
12	0	0	0	0	28	24	560	307	1	34	
13	0	0	0	0	28	24	558	307	1	34	
14	0	0	0	0	28	24	558	307	1	34	
15	0	0	0	0	28	24	558	307	1	34	
0	0	0	0	0	35	31	558	307	2	34	
1	0	0	0	0	28	24	560	307	1	34	
2	0	0	0	0	28	24	560	307	1	34	
3	0	0	0	0	24	24	560	307	1	34	
4	0	0	0	0	28	24	560	307	1	34	
5	0	0	0	0	31	28	560	307	1	34	
6	0	0	0	0	35	31	561	307	1	34	
7	0	0	0	0	28	24	561	307	1	34	
8	0	0	0	0	31	28	561	308	1	34	
9	0	0	0	0	28	24	561	308	1	34	
10	0	0	0	0	31	28	561	307	1	34	
11	0	0	0	0	28	24	561	307	1	34	
12	0	0	0	0	28	24	560	307	1	34	
13	0	0	0	0	24	24	560	307	1	34	
14	0	0	0	0	30	28	560	307	1	34	
15	0	0	0	0	31	28	560	307	1	34	
0	0	0	0	0	31	28	558	307	1	34	
1	0	0	0	0	31	28	558	307	1	34	
2	0	0	0	0	28	24	558	307	1	34	
3	0	0	0	0	28	24	558	307	1	34	
4	0	0	0	0	31	28	558	307	1	34	
5	0	0	0	0	28	24	558	307	1	34	
6	0	0	0	0	24	24	560	307	1	34	
7	0	0	0	0	28	24	560	308	1	34	
8	0	0	0	0	24	24	560	307	1	34	
9	0	0	0	0	31	28	560	307	1	34	
10	0	0	0	0	28	24	560	307	1	34	
11	0	0	0	0	31	28	561	307	1	34	
12	0	0	0	0	31	28	561	307	1	34	
13	0	0	0	0	28	24	563	308	1	34	
14	0	0	0	0	28	24	563	308	1	34	
15	0	0	0	0	31	28	563	310	1	34	
0	0	0	0	0	28	24	561	310	1	34	
1	0	0	0	0	28	24	561	310	1	34	
2	0	0	0	0	28	24	561	308	1	34	
3	0	0	0	0	28	24	560	307	1	34	
4	0	0	0	0	31	28	560	307	1	34	
5	0	0	0	0	28	24	560	307	1	34	
6	0	0	0	0	31	28	560	310	1	34	
7	0	0	0	0	31	28	560	310	1	34	
8	0	0	0	0	28	24	560	308	1	34	
9	0	0	0	0	31	28	560	307	1	34	
10	0	0	0	0	28	24	560	307	1	34	
11	0	0	0	0	28	24	560	307	1	34	
12	0	0	0	0	28	24	560	307	1	34	
13	0	0	0	0	28	24	560	310	1	34	
14	0	0	0	0	22	24	560	308	1	34	
15	0	0	0	0	31	28	560	307	1	34	
0	0	0	0	0	28	24	560	308	1	34	
1	0	0	0	0	31	28	560	310	1	34	
2	0	0	0	0	31	28	560	308	1	34	
3	0	0	0	0	28	24	560	307	1	34	
4	0	0	0	0	28	24	558	307	1	34	
5	0	0	0	0	28	24	556	307	1	34	
6	0	0	0	0	28	24	556	307	1	34	
7	0	0	0	0	24	24	556	307	1	34	
8	0	0	0	0	28	24	553	307	1	34	
9	0	0	0	0	24	24	551	307	1	34	
10	0	0	0	0	28	24	551	307	1	34	
11	0	0	0	0	24	24	551	307	1	34	
12	0	0	0	0	28	24	551	307	1	34	
13	0	0	0	0	35	31	551	307	1	34	
14	0	0	0	0	28	24	551	307	1	34	
15	0	0	0	0	28	22	551	307	1	34	
0	0	0	0	0	28	24	551	307	1	34	
1	0	0	0	0	24	24	551	307	1	34	
2	0	0	0	0	28	24	553	307	1	34	
3	0	0	0	0	35	31	551	307	1	34	
4	0	0	0	0	28	24	553	307	1	34	
5	0	0	0	0	28	24	553	307	1	34	
6	0	0	0	0	24	24	551	307	1	34	
7	0	0	0	0	31	28	551	307	1	34	
8	0	0	0	0	31	28	551	307	1	34	
9	0	0	0	0	28	24	551	307	1	34	
10	0	0	0	0	31	28	551	307	1	34	
11	0	0	0	0	28	24	551	307	1	34	
12	0	0	0	0	31	28	551	307	1	34	
13	0	0	0	0	28	24	550	307	1	34	
14	0	0	0	0	24	24	551	307	1	34	
15	0	0	0	0	28	24	551	307	1	34	
0	0	0	0	0	24	24	551	307	1	34	
1	0	0	0	0	31	28	551	307	1	34	
2	0	0	0	0	28	24	551	307	1	34	
3	0	0	0	0	31	28	551	307	1	34	
4	0	0	0	0	28	24	551	307	1	34	
5	0	0	0	0	28	24	553	307	1	34	
6	0	0	0	0	28	24	556	307	1	34	
7	0	0	0	0	31	28	556	307	1	34	
8	0	0	0	0	28	24	556	307	1	34	
9	0	0	0	0	31	28	553	307	1	34	
10	0	0	0	0	28	24	553	308	1	34	
11	0	0	0	0	35	31	551	310	2	34	
12	0	0	0	0	28	24	551	310	1	34	
13	0	0	0	0	31	28	551	310	1	34	
14	0	0	0	0	31	28	551	308	1	34	
15	0	0	0	0	28	24	551	307	1	34	
0	0	0	0	0	35	31	550	307	1	34	
1	0	0	0	0	28	24	550	307	1	34	
2	0	0	0	0	24	24	550	307	1	34	
3	0	0	0	0	28	24	550	308	1	34	
4	0	0	0	0	24	24	551	307	1	34	
5	0	0	0	0	28	24	551	307	1	34	
6	0	0	0	0	31	28	551	310	1	34	
7	0	0	0	0	28	24	551	310	1	34	
8	0	0	0	0	31	28	551	308	1	34	
9	0	0	0	0	28	24	551	307	1	34	
10	0	0	0	0	28	24	551	307	1	34	
11	0	0	0	0	28	24	551	307	1	34	
12	0	0	0	0	28	24	551	307	1	34	
13	0	0	0	0	31	28	551	307	1	34	
14	0	0	0	0	24	24	551	307	1	34	
15	0	0	0	0	28	24	551	307	1	34	
0	0	0	0	0	35	31	551	307	1	34	
1	0	0	0	0	31	28	550	307	1	34	
2	0	0	0	0	28	24	550	307	1	34	
3	0	0	0	0	28	24	547	307	1	34	
4	0	0	0	0	24	24	547	307	1	34	
5	0	0	0	0	28	24	547	307	1	34	
6	0	0	0	0	24	24	547	307	1	34	
7	0	0	0	0	28	24	547	307	1	34	
8	0	0	0	0	28	24	547	307	1	34	
9	0	0	0	0	35	31	547	307	1	34	
10	0	0	0	0	28	24	547	307	1	34	
11	0	0	0	0	31	28	550	307	1	34	
12	0	0	0	0	28	24	550	310	1	34	
13	0	0	0	0	28	24	551	307	1	34	
14	0	0	0	0	31	28	551	307	1	34	
15	0	0	0	0	28	24	551	307	1	34	
0	0	0	0	0	28	24	551	310	1	34	
1	0	0	0	0	28	24	551	310	1	34	
2	0	0	0	0	28	24	551	310	1	34	
3	0	0	0	0	35	31	550	310	1	34	
4	0	0	0	0	31	28	547	310	1	34	
5	0	0	0	0	31	28	547	307	1	34	
6	0	0	0	0	31	28	547	307	1	34	
7	0	0	0	0	28	24	547	310	1	34	
8	0	0	0	0	28	24	547	310	1	34	
9	0	0	0	0	28	24	547	310	1	34	
10	0	0	0	0	31	28	547	310	1	34	
11	0	0	0	0	28	24	547	310	1	34	
12	0	0	0	0	31	28	547	310	1	34	
13	0	0	0	0	28	24	547	310	1	34	
14	0	0	0	0	24	24	547	310	1	34	
15	0	0	0	0	28	24	547	310	1	34	
0	0	0	0	0	28	24	550	310	1	34	
1	0	0	0	0	31	28	550	310	1	34	
2	0	0	0	0	28	24	551	308	1	34	
3	0	0	0	0	28	24	551	307	1	34	
4	0	0	0	0	31	28	551	307	1	34	
5	0	0	0	0	31	28	551	307	1	34	
6	0	0	0	0	28	24	550	307	1	34	
7	0	0	0	0	28	24	550	307	1	34	
8	0	0	0	0	28	24	547	307	1	34	
9	0	0	0	0	25	24	547	307	1	34	
10	0	0	0	0	28	24	547	310	1	34	
11	0	0	0	0	31	28	543	310	1	34	
12	0	0	0	0	31	28	543	308	1	34	
13	0	0	0	0	28	24	543	308	1	34	
14	0	0	0	0	31	28	543	308	1	34	
15	0	0	0	0	31	28	543	307	1	34	
0	0	0	0	0	28	24	543	310	1	34	
1	0	0	0	0	28	24	543	307	1	34	
2	0	0	0	0	28	24	543	308	1	34	
3	0	0	0	0	28	22	543	308	1	34	
4	0	0	0	0	31	28	547	307	1	34	
5	0	0	0	0	28	24	547	307	1	34	
6	0	0	0	0	35	31	547	307	1	34	
7	0	0	0	0	28	24	547	307	1	34	
8	0	0	0	0	28	24	547	307	1	34	
9	0	0	0	0	28	24	547	310	1	34	
10	0	0	0	0	31	28	547	307	1	34	
11	0	0	0	0	35	31	547	307	1	34	
12	0	0	0	0	28	24	547	307	1	34	
13	0	0	0	0	28	24	543	307	1	34	
14	0	0	0	0	24	24	543	307	1	34	
15	0	0	0	0	31	28	543	308	1	34	
0	0	0	0	0	31	28	543	307	1	34	
1	0	0	0	0	31	28	543	307	1	34	
2	0	0	0	0	28	24	543	307	1	34	
3	0	0	0	0	31	28	543	307	1	34	
4	0	0	0	0	28	24	543	307	1	34	
5	0	0	0	0	28	24	543	308	1	34	
6	0	0	0	0	31	28	547	308	1	34	
7	0	0	0	0	28	24	547	310	1	34	
8	0	0	0	0	31	28	547	307	1	34	
9	0	0	0	0	28	24	547	307	1	34	
10	0	0	0	0	28	24	547	307	1	34	
11	0	0	0	0	31	28	547	307	1	34	
12	0	0	0	0	28	24	547	307	1	34	
13	0	0	0	0	24	24	547	307	1	34	
14	0	0	0	0	31	28	547	307	1	34	
15	0	0	0	0	31	28	543	307	1	34	
0	0	0	0	0	28	24	543	307	1	34	
1	0	0	0	0	31	28	543	307	1	34	
2	0	0	0	0	31	28	543	307	1	34	
3	0	0	0	0	28	24	543	307	1	34	
4	0	0	0	0	28	24	543	307	1	34	
5	0	0	0	0	28	24	543	307	1	34	
6	0	0	0	0	31	28	543	307	1	34	
7	0	0	0	0	28	24	543	307	1	34	
8	0	0	0	0	28	24	543	307	1	34	
9	0	0	0	0	28	24	543	307	1	34	
10	0	0	0	0	28	24	543	307	1	34	
11	0	0	0	0	28	24	543	307	1	34	
12	0	0	0	0	28	24	547	308	1	34	
13	0	0	0	0	28	24	547	308	1	34	
14	0	0	0	0	28	28	547	307	1	34	
15	0	0	0	0	28	24	550	307	1	34	
0	0	0	0	0	28	24	550	307	1	34	
1	0	0	0	0	31	28	550	307	1	34	
2	0	0	0	0	28	24	548	307	1	34	
3	0	0	0	0	28	24	547	307	1	34	
4	0	0	0	0	28	24	547	307	1	34	
5	0	0	0	0	24	24	547	307	1	34	
6	0	0	0	0	28	24	545	307	1	34	
7	0	0	0	0	28	24	543	307	1	34	
8	0	0	0	0	28	24	543	307	1	34	
9	0	0	0	0	31	28	543	307	1	34	
10	0	0	0	0	28	24	543	307	1	34	
11	0	0	0	0	31	28	543	307	1	34	
12	0	0	0	0	28	24	543	307	1	34	
13	0	0	0	0	28	24	543	307	1	34	
14	0	0	0	0	28	24	543	307	1	34	
15	0	0	0	0	35	31	543	307	1	34	
0	0	0	0	0	28	24	547	307	1	34	
1	0	0	0	0	28	24	547	307	1	34	
2	0	0	0	0	31	28	547	307	1	34	
3	0	0	0	0	24	24	547	307	1	34	
4	0	0	0	0	28	24	547	307	1	34	
5	0	0	0	0	28	24	547	307	1	34	
6	0	0	0	0	35	31	543	307	1	34	
7	0	0	0	0	24	24	543	307	1	34	
8	0	0	0	0	28	24	543	307	1	34	
9	0	0	0	0	28	24	543	307	1	34	
10	0	0	0	0	28	24	543	307	1	34	
11	0	0	0	0	28	24	542	307	1	34	
12	0	0	0	0	28	24	540	307	1	34	
13	0	0	0	0	28	24	540	307	1	34	
14	0	0	0	0	25	24	540	307	1	34	
15	0	0	0	0	28	24	540	307	1	34	
0	0	0	0	0	35	31	540	307	1	34	
1	0	0	0	0	31	28	540	307	1	34	
2	0	0	0	0	24	24	542	307	1	34	
3	0	0	0	0	28	24	543	307	1	34	
4	0	0	0	0	28	24	543	307	1	34	
5	0	0	0	0	28	24	543	307	1	34	
6	0	0	0	0	31	28	543	307	1	34	
7	0	0	0	0	28	24	543	307	1	34	
8	0	0	0	0	28	24	543	307	1	34	
9	0	0	0	0	31	28	543	307	1	34	
10	0	0	0	0	35	31	543	307	1	34	
11	0	0	0	0	35	31	543	307	2	34	
12	0	0	0	0	28	24	543	307	1	34	
13	0	0	0	0	31	28	543	307	1	34	
14	0	0	0	0	31	28	542	307	1	34	
15	0	0	0	0	28	24	542	307	1	34	
0	0	0	0	0	28	24	542	307	1	34	
1	0	0	0	0	28	24	540	307	1	34	
2	0	0	0	0	28	24	540	307	1	34	
3	0	0	0	0	28	24	540	307	1	34	
4	0	0	0	0	28	24	540	307	1	34	
5	0	0	0	0	28	24	542	307	1	34	
6	0	0	0	0	31	28	542	307	1	34	
7	0	0	0	0	28	22	542	307	1	34	
8	0	0	0	0	28	24	543	307	1	34	
9	0	0	0	0	31	28	543	307	1	34	
10	0	0	0	0	24	24	543	307	1	34	
11	0	0	0	0	28	24	543	307	1	34	
12	0	0	0	0	35	31	543	307	1	34	
13	0	0	0	0	28	24	543	307	1	34	
14	0	0	0	0	24	24	543	307	1	34	
15	0	0	0	0	28	24	542	307	1	34	
0	0	0	0	0	28	24	542	307	1	34	
1	0	0	0	0	31	28	540	307	1	34	
2	0	0	0	0	28	24	540	307	1	34	
3	0	0	0	0	31	28	537	307	1	34	
4	0	0	0	0	28	24	537	307	1	34	
5	0	0	0	0	28	24	536	307	1	34	
6	0	0	0	0	28	24	536	307	1	34	
7	0	0	0	0	35	31	536	307	1	34	
8	0	0	0	0	28	24	537	307	1	34	
9	0	0	0	0	28	24	537	307	1	34	
10	0	0	0	0	28	24	540	307	1	34	
11	0	0	0	0	28	24	540	307	1	34	
12	0	0	0	0	28	24	540	307	1	34	
13	0	0	0	0	28	24	542	307	1	34	
14	0	0	0	0	28	24	542	307	1	34	
15	0	0	0	0	31	28	542	307	1	34	
0	0	0	0	0	35	31	542	307	1	34	
1	0	0	0	0	28	24	542	307	1	34	
2	0	0	0	0	28	24	542	307	1	34	
3	0	0	0	0	24	24	542	307	1	34	
4	0	0	0	0	31	28	540	307	1	34	
5	0	0	0	0	28	24	540	307	1	34	
6	0	0	0	0	31	28	537	307	1	34	
7	0	0	0	0	28	24	536	307	1	34	
8	0	0	0	0	31	28	536	307	1	34	
9	0	0	0	0	28	24	536	307	1	34	
10	0	0	0	0	28	24	536	307	1	34	
11	0	0	0	0	31	28	536	307	1	34	
12	0	0	0	0	28	24	536	307	1	34	
13	0	0	0	0	28	24	536	307	1	34	
14	0	0	0	0	24	24	536	307	1	34	
15	0	0	0	0	31	28	536	307	1	34	
0	0	0	0	0	28	24	537	307	1	34	
1	0	0	0	0	31	28	537	307	1	34	
2	0	0	0	0	28	24	540	307	1	34	
3	0	0	0	0	31	28	540	307	1	34	
4	0	0	0	0	31	28	540	307	1	34	
5	0	0	0	0	28	24	542	307	1	34	
6	0	0	0	0	28	24	542	307	1	34	
7	0	0	0	0	28	24	542	307	1	34	
8	0	0	0	0	28	24	542	307	1	34	
9	0	0	0	0	28	24	542	307	1	34	
10	0	0	0	0	28	24	542	307	1	34	
11	0	0	0	0	24	24	540	307	1	34	
12	0	0	0	0	28	24	540	307	1	34	
13	0	0	0	0	28	24	540	307	1	34	
14	0	0	0	0	28	24	540	307	1	34	
15	0	0	0	0	28	24	540	307	1	34	
0	0	0	0	0	28	24	540	310	1	34	
1	0	0	0	0	28	24	540	308	1	34	
2	0	0	0	0	28	24	540	308	1	34	
3	0	0	0	0	31	28	540	307	1	34	
4	0	0	0	0	28	24	540	307	1	34	
5	0	0	0	0	31	28	542	307	1	34	
6	0	0	0	0	24	24	542	307	1	34	
7	0	0	0	0	31	28	542	307	1	34	
8	0	0	0	0	28	24	542	307	1	34	
9	0	0	0	0	31	28	542	307	1	34	
10	0	0	0	0	28	24	542	307	1	34	
11	0	0	0	0	28	24	542	307	1	34	
12	0	0	0	0	31	28	542	307	1	34	
13	0	0	0	0	28	24	542	307	1	34	
14	0	0	0	0	24	24	540	307	1	34	
15	0	0	0	0	28	24	540	310	1	34	
0	0	0	0	0	31	28	540	310	1	34	
1	0	0	0	0	28	24	540	307	1	34	
2	0	0	0	0	28	24	540	307	1	34	
3	0	0	0	0	31	28	540	307	1	34	
4	0	0	0	0	24	24	542	307	1	34	
5	0	0	0	0	28	24	542	307	1	34	
6	0	0	0	0	24	24	543	307	1	34	
7	0	0	0	0	31	28	543	307	1	34	
8	0	0	0	0	28	24	543	307	1	34	
9	0	0	0	0	28	24	543	307	1	34	
10	0	0	0	0	31	28	543	307	1	34	
11	0	0	0	0	24	24	543	307	1	34	
12	0	0	0	0	35	31	543	307	1	34	
13	0	0	0	0	28	24	543	307	1	34	
14	0	0	0	0	28	24	543	307	1	34	
15	0	0	0	0	35	31	543	307	1	34	
0	0	0	0	0	31	28	543	307	1	34	
1	0	0	0	0	28	24	542	307	1	34	
2	0	0	0	0	28	24	540	307	1	34	
3	0	0	0	0	35	31	540	307	1	34	
4	0	0	0	0	28	24	540	307	1	34	
5	0	0	0	0	28	24	540	307	1	34	
6	0	0	0	0	24	24	537	307	1	34	
7	0	0	0	0	28	24	537	307	1	34	
8	0	0	0	0	28	24	537	307	1	34	
9	0	0	0	0	28	24	540	307	1	34	
10	0	0	0	0	28	24	540	307	1	34	
11	0	0	0	0	28	22	540	307	1	34	
12	0	0	0	0	28	24	542	307	1	34	
13	0	0	0	0	31	28	542	308	1	34	
14	0	0	0	0	24	24	543	307	1	34	
15	0	0	0	0	35	31	543	307	1	34	
0	0	0	0	0	28	24	543	308	1	34	
1	0	0	0	0	35	31	543	308	1	34	
2	0	0	0	0	28	24	543	310	1	34	
3	0	0	0	0	31	28	543	308	1	34	
4	0	0	0	0	24	24	543	307	1	34	
5	0	0	0	0	28	24	543	307	1	34	
6	0	0	0	0	35	31	543	307	1	34	
7	0	0	0	0	28	24	543	307	1	34	
8	0	0	0	0	28	24	543	308	1	34	
9	0	0	0	0	28	24	542	307	1	34	
10	0	0	0	0	28	24	542	307	1	34	
11	0	0	0	0	31	28	542	307	1	34	
12	0	0	0	0	28	24	542	307	1	34	
13	0	0	0	0	31	28	542	307	1	34	
14	0	0	0	0	31	28	542	307	1	34	
15	0	0	0	0	28	24	542	307	1	34	
0	0	0	0	0	28	24	542	307	1	34	
1	0	0	0	0	35	31	542	307	1	34	
2	0	0	0	0	24	24	542	307	1	34	
3	0	0	0	0	31	28	542	307	1	34	
4	0	0	0	0	28	24	542	307	1	34	
5	0	0	0	0	31	28	542	307	1	34	
6	0	0	0	0	35	31	542	307	1	34	
7	0	0	0	0	28	24	540	307	1	34	
8	0	0	0	0	28	24	540	307	1	34	
9	0	0	0	0	28	24	540	307	1	34	
10	0	0	0	0	31	28	540	307	1	34	
11	0	0	0	0	28	24	540	307	1	34	
12	0	0	0	0	28	24	537	307	1	34	
13	0	0	0	0	28	24	537	307	1	34	
14	0	0	0	0	24	24	537	307	1	34	
15	0	0	0	0	24	24	537	307	1	34	
0	0	0	0	0	28	24	537	307	1	34	
1	0	0	0	0	24	24	540	307	1	34	
2	0	0	0	0	28	24	540	307	1	34	
3	0	0	0	0	28	24	540	307	1	34	
4	0	0	0	0	24	24	540	307	1	34	
5	0	0	0	0	31	28	540	307	1	34	
6	0	0	0	0	31	28	540	307	1	34	
7	0	0	0	0	28	24	537	307	1	34	
8	0	0	0	0	28	24	536	307	1	34	
9	0	0	0	0	28	24	536	307	1	34	
10	0	0	0	0	28	24	536	307	1	34	
11	0	0	0	0	31	28	531	307	1	34	
12	0	0	0	0	31	28	531	307	1	34	
13	0	0	0	0	31	28	527	307	1	34	
14	0	0	0	0	35	31	527	307	1	34	
15	0	0	0	0	31	28	527	307	1	34	
0	0	0	0	0	24	24	527	307	1	34	
1	0	0	0	0	35	31	527	307	1	34	
2	0	0	0	0	28	24	527	307	1	34	
3	0	0	0	0	31	28	527	307	1	34	
4	0	0	0	0	28	24	527	307	1	34	
5	0	0	0	0	31	28	527	307	1	34	
6	0	0	0	0	24	24	527	307	1	34	
7	0	0	0	0	28	24	531	307	1	34	
8	0	0	0	0	31	28	531	307	1	34	
9	0	0	0	0	28	24	531	307	1	34	
10	0	0	0	0	28	24	531	307	1	34	
11	0	0	0	0	28	24	531	307	1	34	
12	0	0	0	0	35	31	531	307	1	34	
13	0	0	0	0	28	24	531	307	1	34	
14	0	0	0	0	24	24	529	307	1	34	
15	0	0	0	0	28	24	527	307	1	34	
0	0	0	0	0	24	24	527	307	1	34	
1	0	0	0	0	24	24	526	307	1	34	
2	0	0	0	0	28	24	524	307	1	34	
3	0	0	0	0	28	24	521	307	1	34	
4	0	0	0	0	28	24	519	307	1	34	
5	0	0	0	0	28	24	519	307	1	34	
6	0	0	0	0	24	24	518	307	1	34	
7	0	0	0	0	28	24	515	307	1	34	
8	0	0	0	0	28	24	515	307	1	34	
9	0	0	0	0	25	24	515	307	1	34	
10	0	0	0	0	31	28	515	307	1	34	
11	0	0	0	0	35	31	513	307	1	34	
12	0	0	0	0	28	24	515	307	1	34	
13	0	0	0	0	28	24	515	307	1	34	
14	0	0	0	0	35	31	513	307	1	34	
15	0	0	0	0	31	28	515	307	1	34	
0	0	0	0	0	28	24	513	307	1	34	
1	0	0	0	0	35	31	513	307	1	34	
2	0	0	0	0	31	28	512	307	1	34	
3	0	0	0	0	31	28	512	307	1	34	
4	0	0	0	0	28	24	511	307	1	34	
5	0	0	0	0	31	28	510	307	1	34	
6	0	0	0	0	35	31	508	307	1	34	
7	0	0	0	0	31	28	505	307	1	34	
8	0	0	0	0	35	31	504	307	1	34	
9	0	0	0	0	28	24	504	307	1	34	
10	0	0	0	0	28	24	504	307	1	34	
11	0	0	0	0	35	31	502	307	1	34	
12	0	0	0	0	31	28	499	307	1	34	
13	0	0	0	0	28	24	499	307	1	34	
14	0	0	0	0	25	24	499	307	1	34	
15	0	0	0	0	24	22	499	307	1	34	
0	0	0	0	0	28	24	497	307	1	34	
1	0	0	0	0	35	31	497	307	1	34	
2	0	0	0	0	31	28	497	307	1	34	
3	0	0	0	0	28	24	496	307	1	34	
4	0	0	0	0	28	24	496	307	1	34	
5	0	0	0	0	28	24	496	307	1	34	
6	0	0	0	0	28	24	496	307	1	34	
7	0	0	0	0	28	24	494	307	1	34	
8	0	0	0	0	28	24	494	307	1	34	
9	0	0	0	0	28	24	492	307	1	34	
10	0	0	0	0	28	24	492	308	1	34	
11	0	0	0	0	24	24	491	307	1	34	
12	0	0	0	0	28	24	487	307	1	34	
13	0	0	0	0	31	28	487	307	1	34	
14	0	0	0	0	31	28	487	307	1	34	
15	0	0	0	0	28	24	487	307	1	34	
0	0	0	0	0	28	24	487	307	1	34	
1	0	0	0	0	31	28	487	307	1	34	
2	0	0	0	0	28	24	487	307	1	34	
3	0	0	0	0	28	24	487	307	1	34	
4	0	0	0	0	31	28	487	307	1	34	
5	0	0	0	0	28	24	487	307	1	34	
6	0	0	0	0	35	31	487	307	1	34	
7	0	0	0	0	28	24	487	307	1	34	
8	0	0	0	0	31	28	487	307	1	34	
9	0	0	0	0	28	24	487	307	1	34	
10	0	0	0	0	31	28	487	307	1	34	
11	0	0	0	0	28	24	487	307	1	34	
12	0	0	0	0	28	24	487	307	1	34	
13	0	0	0	0	24	24	487	307	1	34	
14	0	0	0	0	24	24	487	307	1	34	
15	0	0	0	0	35	31	487	307	1	34	
0	0	0	0	0	24	24	487	307	1	34	
1	0	0	0	0	35	31	487	307	1	34	
2	0	0	0	0	24	24	487	307	1	34	
3	0	0	0	0	31	28	487	307	1	34	
4	0	0	0	0	28	24	487	307	1	34	
5	0	0	0	0	31	28	487	307	1	34	
6	0	0	0	0	28	24	487	307	1	34	
7	0	0	0	0	31	28	492	307	1	34	
8	0	0	0	0	28	24	492	307	1	34	
9	0	0	0	0	25	24	492	307	1	34	
10	0	0	0	0	24	24	494	307	1	34	
11	0	0	0	0	28	24	494	307	1	34	
12	0	0	0	0	24	24	494	307	1	34	
13	0	0	0	0	28	24	494	307	1	34	
14	0	0	0	0	28	24	494	307	1	34	
15	0	0	0	0	28	24	494	307	1	34	
0	0	0	0	0	31	28	494	307	1	34	
1	0	0	0	0	31	28	492	307	1	34	
2	0	0	0	0	31	28	492	307	1	34	
3	0	0	0	0	28	28	492	307	1	34	
4	0	0	0	0	28	24	492	307	1	34	
5	0	0	0	0	28	24	492	307	1	34	
6	0	0	0	0	35	31	492	307	1	34	
7	0	0	0	0	31	28	492	307	1	34	
8	0	0	0	0	31	28	492	307	1	34	
9	0	0	0	0	28	24	492	307	1	34	
10	0	0	0	0	35	31	492	307	1	34	
11	0	0	0	0	31	28	494	307	1	34	
12	0	0	0	0	24	24	494	307	1	34	
13	0	0	0	0	28	24	496	307	1	34	
14	0	0	0	0	25	24	496	307	1	34	
15	0	0	0	0	28	24	496	307	1	34	
0	0	0	0	0	31	28	496	307	1	34	
1	0	0	0	0	31	28	496	308	1	34	
2	0	0	0	0	31	28	496	310	1	34	
3	0	0	0	0	35	31	496	308	1	34	
4	0	0	0	0	31	28	496	307	1	34	
5	0	0	0	0	24	24	496	308	1	34	
6	0	0	0	0	35	31	496	307	1	34	
7	0	0	0	0	28	24	496	307	1	34	
8	0	0	0	0	31	28	496	308	1	34	
9	0	0	0	0	28	24	496	310	1	34	
10	0	0	0	0	31	28	496	308	1	34	
11	0	0	0	0	28	24	496	310	1	34	
12	0	0	0	0	28	24	496	310	1	34	
13	0	0	0	0	28	24	496	310	1	34	
14	0	0	0	0	35	31	496	307	1	34	
15	0	0	0	0	28	24	496	307	1	34	
0	0	0	0	0	31	28	496	307	1	34	
1	0	0	0	0	35	31	497	307	1	34	
2	0	0	0	0	28	24	499	307	1	34	
3	0	0	0	0	28	24	499	307	1	34	
4	0	0	0	0	28	24	499	307	1	34	
5	0	0	0	0	28	24	499	307	1	34	
6	0	0	0	0	31	28	499	307	1	34	
7	0	0	0	0	28	24	497	307	1	34	
8	0	0	0	0	31	28	497	307	1	34	
9	0	0	0	0	31	28	496	307	1	34	
10	0	0	0	0	28	24	496	307	1	34	
11	0	0	0	0	28	24	496	307	1	34	
12	0	0	0	0	28	24	496	307	1	34	
13	0	0	0	0	28	24	496	307	1	34	
14	0	0	0	0	24	24	496	307	1	34	
15	0	0	0	0	28	24	496	307	1	34	
0	0	0	0	0	28	24	496	307	1	34	
1	0	0	0	0	35	31	496	307	1	34	
2	0	0	0	0	28	24	496	307	1	34	
3	0	0	0	0	28	22	497	307	1	34	
4	0	0	0	0	28	24	497	307	1	34	
5	0	0	0	0	28	24	499	307	1	34	
6	0	0	0	0	28	24	499	307	1	34	
7	0	0	0	0	28	24	499	307	1	34	
8	0	0	0	0	24	24	499	307	1	34	
9	0	0	0	0	28	24	499	307	1	34	
10	0	0	0	0	24	24	499	307	1	34	
11	0	0	0	0	31	28	499	307	1	34	
12	0	0	0	0	31	28	499	307	1	34	
13	0	0	0	0	28	24	499	307	1	34	
14	0	0	0	0	28	24	497	307	1	34	
15	0	0	0	0	28	24	497	307	1	34	
0	0	0	0	0	35	31	496	307	1	34	
1	0	0	0	0	31	28	496	307	1	34	
2	0	0	0	0	28	24	496	307	1	34	
3	0	0	0	0	31	31	496	307	1	34	
4	0	0	0	0	28	24	497	307	1	34	
5	0	0	0	0	28	24	497	307	1	34	
6	0	0	0	0	24	24	499	307	1	34	
7	0	0	0	0	28	24	499	307	1	34	
8	0	0	0	0	35	31	499	307	1	34	
9	0	0	0	0	28	24	502	307	1	34	
10	0	0	0	0	24	24	504	307	1	34	
11	0	0	0	0	28	24	504	307	1	34	
12	0	0	0	0	24	24	504	307	1	34	
13	0	0	0	0	28	24	504	307	1	34	
14	0	0	0	0	30	28	504	307	1	34	
15	0	0	0	0	28	24	504	307	1	34	
0	0	0	0	0	28	24	504	307	1	34	
1	0	0	0	0	31	28	504	307	1	34	
2	0	0	0	0	31	28	504	307	1	34	
3	0	0	0	0	28	24	502	307	1	34	
4	0	0	0	0	31	28	499	307	1	34	
5	0	0	0	0	24	24	499	307	1	34	
6	0	0	0	0	28	24	499	307	1	34	
7	0	0	0	0	24	24	499	307	1	34	
8	0	0	0	0	28	24	502	307	1	34	
9	0	0	0	0	35	31	502	307	1	34	
10	0	0	0	0	28	24	504	307	1	34	
11	0	0	0	0	24	24	504	308	1	34	
12	0	0	0	0	24	24	504	308	1	34	
13	0	0	0	0	31	28	504	307	1	34	
14	0	0	0	0	28	24	504	307	1	34	
15	0	0	0	0	31	28	504	308	1	34	
0	0	0	0	0	31	28	505	307	1	34	
1	0	0	0	0	31	28	505	307	1	34	
2	0	0	0	0	28	24	505	308	1	34	
3	0	0	0	0	28	24	505	308	1	34	
4	0	0	0	0	28	24	505	307	1	34	
5	0	0	0	0	28	24	504	307	1	34	
6	0	0	0	0	35	31	504	307	1	34	
7	0	0	0	0	28	24	504	307	1	34	
8	0	0	0	0	31	28	504	307	1	34	
9	0	0	0	0	28	24	504	307	1	34	
10	0	0	0	0	28	24	504	307	1	34	
11	0	0	0	0	28	24	504	307	1	34	
12	0	0	0	0	28	24	504	307	1	34	
13	0	0	0	0	35	31	504	307	1	34	
14	0	0	0	0	24	24	504	307	1	34	
15	0	0	0	0	28	24	505	307	1	34	
0	0	0	0	0	28	24	508	307	1	34	
1	0	0	0	0	35	31	508	307	1	34	
2	0	0	0	0	28	24	508	307	1	34	
3	0	0	0	0	28	24	508	307	1	34	
4	0	0	0	0	28	24	508	307	1	34	
5	0	0	0	0	28	24	508	307	1	34	
6	0	0	0	0	35	31	508	307	1	34	
7	0	0	0	0	28	24	508	307	1	34	
8	0	0	0	0	24	24	508	307	1	34	
9	0	0	0	0	25	24	508	307	1	34	
10	0	0	0	0	24	24	508	307	1	34	
11	0	0	0	0	31	28	508	307	1	34	
12	0	0	0	0	31	28	508	307	1	34	
13	0	0	0	0	28	24	508	307	1	34	
14	0	0	0	0	28	24	508	310	1	34	
15	0	0	0	0	28	24	510	310	1	34	
0	0	0	0	0	28	24	511	307	1	34	
1	0	0	0	0	28	24	511	308	1	34	
2	0	0	0	0	28	24	512	308	1	34	
3	0	0	0	0	31	28	512	308	1	34	
4	0	0	0	0	28	24	512	310	1	34	
5	0	0	0	0	28	24	512	310	1	34	
6	0	0	0	0	35	31	511	308	1	34	
7	0	0	0	0	31	28	510	307	1	34	
8	0	0	0	0	28	24	508	307	1	34	
9	0	0	0	0	28	24	505	307	1	34	
10	0	0	0	0	31	28	504	307	1	34	
11	0	0	0	0	28	24	502	307	1	34	
12	0	0	0	0	28	24	499	307	1	34	
13	0	0	0	0	28	24	496	307	1	34	
14	0	0	0	0	33	31	496	307	1	34	
15	0	0	0	0	31	28	494	307	1	34	
0	0	0	0	0	31	28	492	310	1	34	
1	0	0	0	0	24	24	492	310	1	34	
2	0	0	0	0	28	24	492	307	1	34	
3	0	0	0	0	28	24	492	307	1	34	
4	0	0	0	0	28	24	492	308	1	34	
5	0	0	0	0	24	24	494	308	1	34	
6	0	0	0	0	28	24	496	307	1	34	
7	0	0	0	0	24	23	496	308	1	34	
8	0	0	0	0	28	25	496	308	1	34	
9	0	0	0	0	31	28	497	307	1	34	
10	0	0	0	0	31	28	499	308	1	34	
11	0	0	0	0	28	24	499	308	1	34	
12	0	0	0	0	28	24	499	307	1	34	
13	0	0	0	0	28	24	502	307	1	34	
14	0	0	0	0	28	24	502	307	1	34	
15	0	0	0	0	31	28	502	310	1	34	
0	0	0	0	0	28	24	502	307	1	34	
1	0	0	0	0	28	24	500	307	1	34	
2	0	0	0	0	28	24	499	307	1	34	
3	0	0	0	0	31	28	499	308	1	34	
4	0	0	0	0	24	24	499	307	1	34	
5	0	0	0	0	28	24	499	307	1	34	
6	0	0	0	0	35	31	499	307	1	34	
7	0	0	0	0	28	24	499	307	1	34	
8	0	0	0	0	28	24	499	307	1	34	
9	0	0	0	0	28	24	499	307	1	34	
10	0	0	0	0	28	24	499	308	1	34	
11	0	0	0	0	28	24	502	308	1	34	
12	0	0	0	0	28	24	504	307	1	34	
13	0	0	0	0	31	28	504	307	1	34	
14	0	0	0	0	28	28	504	307	1	34	
15	0	0	0	0	31	28	504	307	1	34	
0	0	0	0	0	31	28	504	307	1	34	
1	0	0	0	0	28	24	504	307	1	34	
2	0	0	0	0	31	28	504	307	1	34	
3	0	0	0	0	28	24	504	307	1	34	
4	0	0	0	0	28	24	504	307	1	34	
5	0	0	0	0	28	24	504	307	1	34	
6	0	0	0	0	28	24	502	307	1	34	
7	0	0	0	0	31	28	499	307	1	34	
8	0	0	0	0	28	24	499	307	1	34	
9	0	0	0	0	28	24	499	307	1	34	
10	0	0	0	0	28	24	499	307	1	34	
11	0	0	0	0	35	31	497	307	2	34	
12	0	0	0	0	24	24	497	307	1	34	
13	0	0	0	0	28	24	499	307	1	34	
14	0	0	0	0	24	24	499	307	1	34	
15	0	0	0	0	28	24	499	307	1	34	
0	0	0	0	0	28	24	499	307	1	34	
1	0	0	0	0	35	31	499	307	1	34	
2	0	0	0	0	28	24	499	307	1	34	
3	0	0	0	0	28	24	499	307	1	34	
4	0	0	0	0	31	28	499	307	1	34	
5	0	0	0	0	31	28	499	307	1	34	
6	0	0	0	0	35	31	499	307	1	34	
7	0	0	0	0	28	24	499	307	1	34	
8	0	0	0	0	28	24	499	307	1	34	
9	0	0	0	0	28	24	497	307	1	34	
10	0	0	0	0	28	24	497	307	1	34	
11	0	0	0	0	31	28	497	307	1	34	
12	0	0	0	0	28	24	497	308	1	34	
13	0	0	0	0	28	24	497	307	1	34	
14	0	0	0	0	24	24	497	307	1	34	
15	0	0	0	0	28	24	497	307	1	34	
0	0	0	0	0	28	24	499	307	1	34	
1	0	0	0	0	35	31	499	307	1	34	
2	0	0	0	0	31	28	499	307	1	34	
3	0	0	0	0	28	24	502	307	1	34	
4	0	0	0	0	28	24	504	307	1	34	
5	0	0	0	0	28	24	504	310	1	34	
6	0	0	0	0	28	24	504	307	1	34	
7	0	0	0	0	28	24	504	307	1	34	
8	0	0	0	0	28	24	504	307	1	34	
9	0	0	0	0	25	24	504	307	1	34	
10	0	0	0	0	28	24	504	307	1	34	
11	0	0	0	0	24	24	504	307	1	34	
12	0	0	0	0	28	24	504	307	1	34	
13	0	0	0	0	24	24	502	307	1	34	
14	0	0	0	0	28	24	499	307	1	34	
15	0	0	0	0	31	28	499	307	1	34	
0	0	0	0	0	31	28	499	307	1	34	
1	0	0	0	0	31	28	499	307	1	34	
2	0	0	0	0	35	31	499	307	1	34	
3	0	0	0	0	31	28	499	307	1	34	
4	0	0	0	0	28	24	499	307	1	34	
5	0	0	0	0	28	24	499	307	1	34	
6	0	0	0	0	28	24	499	307	1	34	
7	0	0	0	0	28	24	502	307	1	34	
8	0	0	0	0	35	31	504	307	1	34	
9	0	0	0	0	28	24	504	307	1	34	
10	0	0	0	0	28	24	504	307	1	34	
11	0	0	0	0	28	24	504	307	1	34	
12	0	0	0	0	28	24	504	307	1	34	
13	0	0	0	0	28	24	504	307	1	34	
14	0	0	0	0	25	24	504	307	1	34	
15	0	0	0	0	31	28	504	307	1	34	
0	0	0	0	0	28	24	504	307	1	34	
1	0	0	0	0	28	24	504	307	1	34	
2	0	0	0	0	31	28	504	307	1	34	
3	0	0	0	0	28	24	504	307	1	34	
4	0	0	0	0	28	24	502	307	1	34	
5	0	0	0	0	31	28	500	307	1	34	
6	0	0	0	0	28	24	500	307	1	34	
7	0	0	0	0	28	24	500	307	1	34	
8	0	0	0	0	28	24	502	310	1	34	
9	0	0	0	0	28	24	504	307	1	34	
10	0	0	0	0	28	24	504	307	1	34	
11	0	0	0	0	31	24	504	307	1	34	
12	0	0	0	0	28	24	504	307	1	34	
13	0	0	0	0	28	24	504	307	1	34	
14	0	0	0	0	28	24	504	307	1	34	
15	0	0	0	0	28	24	504	307	1	34	
0	0	0	0	0	28	24	504	307	1	34	
1	0	0	0	0	28	24	504	307	1	34	
2	0	0	0	0	28	24	504	307	1	34	
3	0	0	0	0	31	28	504	307	1	34	
4	0	0	0	0	28	24	504	307	1	34	
5	0	0	0	0	31	28	504	307	1	34	
6	0	0	0	0	28	24	504	307	1	34	
7	0	0	0	0	28	24	504	307	1	34	
8	0	0	0	0	31	28	504	307	1	34	
9	0	0	0	0	28	24	504	307	1	34	
10	0	0	0	0	28	24	504	307	1	34	
11	0	0	0	0	31	28	504	307	1	34	
12	0	0	0	0	28	24	504	307	1	34	
13	0	0	0	0	24	24	504	307	1	34	
14	0	0	0	0	24	24	504	307	1	34	
15	0	0	0	0	28	24	505	307	1	34	
0	0	0	0	0	28	24	508	307	1	34	
1	0	0	0	0	35	31	508	307	1	34	
2	0	0	0	0	28	24	508	307	1	34	
3	0	0	0	0	31	28	508	307	1	34	
4	0	0	0	0	31	28	508	307	1	34	
5	0	0	0	0	28	24	508	307	1	34	
6	0	0	0	0	31	28	508	308	1	34	
7	0	0	0	0	28	24	508	308	1	34	
8	0	0	0	0	24	24	508	307	1	34	
9	0	0	0	0	25	24	505	307	1	34	
10	0	0	0	0	28	24	505	307	1	34	
11	0	0	0	0	31	28	504	307	1	34	
12	0	0	0	0	31	28	504	308	1	34	
13	0	0	0	0	31	28	504	310	1	34	
14	0	0	0	0	28	24	504	310	1	34	
15	0	0	0	0	31	28	504	308	1	34	
0	0	0	0	0	28	24	505	307	1	34	
1	0	0	0	0	28	24	505	307	1	34	
2	0	0	0	0	28	24	508	310	1	34	
3	0	0	0	0	28	24	508	308	1	34	
4	0	0	0	0	31	28	508	308	1	34	
5	0	0	0	0	31	28	510	307	1	34	
6	0	0	0	0	31	28	510	307	1	34	
7	0	0	0	0	31	28	510	307	1	34	
8	0	0	0	0	35	31	511	308	2	34	
9	0	0	0	0	28	24	511	307	1	34	
10	0	0	0	0	28	24	511	308	1	34	
11	0	0	0	0	28	24	511	307	1	34	
12	0	0	0	0	28	24	511	307	1	34	
13	0	0	0	0	31	28	510	307	1	34	
14	0	0	0	0	25	24	510	307	1	34	
15	0	0	0	0	24	24	510	307	1	34	
0	0	0	0	0	28	24	510	307	1	34	
1	0	0	0	0	31	28	508	307	1	34	
2	0	0	0	0	35	31	508	307	1	34	
3	0	0	0	0	35	31	508	307	1	34	
4	0	0	0	0	35	31	510	307	1	34	
5	0	0	0	0	28	24	510	307	1	34	
6	0	0	0	0	28	24	510	307	1	34	
7	0	0	0	0	28	24	511	307	1	34	
8	0	0	0	0	31	28	511	307	1	34	
9	0	0	0	0	28	24	511	307	1	34	
10	0	0	0	0	24	24	511	307	1	34	
11	0	0	0	0	31	28	511	307	1	34	
12	0	0	0	0	31	28	511	307	1	34	
13	0	0	0	0	28	24	511	307	1	34	
14	0	0	0	0	28	24	511	307	1	34	
15	0	0	0	0	31	28	511	307	1	34	
0	0	0	0	0	31	28	510	307	1	34	
1	0	0	0	0	28	24	510	307	1	34	
2	0	0	0	0	28	24	510	307	1	34	
3	0	0	0	0	28	24	510	307	1	34	
4	0	0	0	0	28	24	508	307	1	34	
5	0	0	0	0	31	28	508	307	1	34	
6	0	0	0	0	31	28	508	307	1	34	
7	0	0	0	0	35	31	508	307	2	34	
8	0	0	0	0	35	31	510	307	1	34	
9	0	0	0	0	28	24	510	307	1	34	
10	0	0	0	0	28	24	511	307	1	34	
11	0	0	0	0	28	24	511	307	1	34	
12	0	0	0	0	28	24	511	307	1	34	
13	0	0	0	0	28	24	512	307	1	34	
14	0	0	0	0	24	24	512	307	1	34	
15	0	0	0	0	28	24	512	307	1	34	
0	0	0	0	0	28	24	512	307	1	34	
1	0	0	0	0	35	31	512	307	2	34	
2	0	0	0	0	28	24	512	307	1	34	
3	0	0	0	0	31	28	512	307	1	34	
4	0	0	0	0	31	28	512	307	1	34	
5	0	0	0	0	28	24	511	307	1	34	
6	0	0	0	0	28	24	511	307	1	34	
7	0	0	0	0	28	24	510	307	1	34	
8	0	0	0	0	28	24	510	307	1	34	
9	0	0	0	0	25	24	510	308	1	34	
10	0	0	0	0	28	24	508	307	1	34	
11	0	0	0	0	24	24	508	307	1	34	
12	0	0	0	0	28	24	508	307	1	34	
13	0	0	0	0	35	31	508	307	1	34	
14	0	0	0	0	28	24	510	310	1	34	
15	0	0	0	0	28	23	510	310	2	34	
0	0	0	0	0	24	24	511	310	1	34	
1	0	0	0	0	28	24	511	310	1	34	
2	0	0	0	0	28	24	511	310	1	34	
3	0	0	0	0	31	31	511	310	2	34	
4	0	0	0	0	28	24	512	310	1	34	
5	0	0	0	0	28	24	512	310	1	34	
6	0	0	0	0	35	31	512	310	1	34	
7	0	0	0	0	31	28	512	310	1	34	
8	0	0	0	0	31	28	512	310	1	34	
9	0	0	0	0	28	24	512	310	1	34	
10	0	0	0	0	28	24	511	310	1	34	
11	0	0	0	0	28	24	511	310	1	34	
12	0	0	0	0	28	24	511	310	1	34	
13	0	0	0	0	28	24	511	310	1	34	
14	0	0	0	0	24	24	511	310	1	34	
15	0	0	0	0	31	28	511	310	1	34	
0	0	0	0	0	35	31	511	310	2	34	
1	0	0	0	0	31	28	511	310	1	34	
2	0	0	0	0	28	24	512	308	1	34	
3	0	0	0	0	28	24	512	307	1	34	
4	0	0	0	0	31	28	512	307	1	34	
5	0	0	0	0	28	24	513	308	1	34	
6	0	0	0	0	28	24	513	308	1	34	
7	0	0	0	0	28	24	515	308	1	34	
8	0	0	0	0	28	24	515	307	1	34	
9	0	0	0	0	35	31	515	307	1	34	
10	0	0	0	0	28	24	513	307	1	34	
11	0	0	0	0	31	28	513	307	1	34	
12	0	0	0	0	28	24	513	307	1	34	
13	0	0	0	0	31	28	512	307	1	34	
14	0	0	0	0	28	24	512	307	1	34	
15	0	0	0	0	28	24	512	307	1	34	
0	0	0	0	0	28	24	511	307	1	34	
1	0	0	0	0	28	24	511	307	1	34	
2	0	0	0	0	28	24	511	307	1	34	
3	0	0	0	0	28	24	511	307	1	34	
4	0	0	0	0	35	31	511	307	1	34	
5	0	0	0	0	28	24	512	307	1	34	
6	0	0	0	0	31	28	512	307	1	34	
7	0	0	0	0	31	28	513	307	1	34	
8	0	0	0	0	28	24	513	307	1	34	
9	0	0	0	0	28	24	515	307	1	34	
10	0	0	0	0	28	24	515	308	1	34	
11	0	0	0	0	24	24	515	310	1	34	
12	0	0	0	0	28	24	515	307	1	34	
13	0	0	0	0	28	24	515	307	1	34	
14	0	0	0	0	24	24	515	307	1	34	
15	0	0	0	0	35	31	515	307	1	34	
0	0	0	0	0	28	24	515	307	1	34	
1	0	0	0	0	35	31	515	307	1	34	
2	0	0	0	0	28	24	513	307	1	34	
3	0	0	0	0	28	24	513	307	1	34	
4	0	0	0	0	31	28	513	307	1	34	
5	0	0	0	0	28	24	512	307	1	34	
6	0	0	0	0	24	24	512	307	1	34	
7	0	0	0	0	28	24	512	307	1	34	
8	0	0	0	0	35	31	512	307	1	34	
9	0	0	0	0	28	24	513	308	1	34	
10	0	0	0	0	28	24	513	308	1	34	
11	0	0	0	0	31	28	515	307	1	34	
12	0	0	0	0	28	24	515	308	1	34	
13	0	0	0	0	28	24	515	310	1	34	
14	0	0	0	0	28	24	518	307	1	34	
15	0	0	0	0	28	24	518	307	1	34	
0	0	0	0	0	31	28	518	307	1	34	
1	0	0	0	0	31	28	518	307	1	34	
2	0	0	0	0	28	24	518	307	1	34	
3	0	0	0	0	28	24	518	307	1	34	
4	0	0	0	0	28	24	518	307	1	34	
5	0	0	0	0	28	24	518	307	1	34	
6	0	0	0	0	35	31	515	307	1	34	
7	0	0	0	0	28	24	515	307	1	34	
8	0	0	0	0	24	24	515	307	1	34	
9	0	0	0	0	28	24	515	307	1	34	
10	0	0	0	0	28	24	515	307	1	34	
11	0	0	0	0	28	24	515	307	1	34	
12	0	0	0	0	31	28	515	307	1	34	
13	0	0	0	0	28	24	515	307	1	34	
14	0	0	0	0	24	24	515	307	1	34	
15	0	0	0	0	35	31	515	307	1	34	
0	0	0	0	0	31	28	516	307	1	34	
1	0	0	0	0	31	28	518	307	1	34	
2	0	0	0	0	28	24	519	307	1	34	
3	0	0	0	0	28	24	519	307	1	34	
4	0	0	0	0	24	24	519	307	1	34	
5	0	0	0	0	28	24	519	307	1	34	
6	0	0	0	0	28	24	519	307	1	34	
7	0	0	0	0	31	28	519	307	1	34	
8	0	0	0	0	31	28	519	307	1	34	
9	0	0	0	0	25	24	519	307	1	34	
10	0	0	0	0	35	31	519	307	1	34	
11	0	0	0	0	31	28	519	307	1	34	
12	0	0	0	0	31	28	518	307	1	34	
13	0	0	0	0	28	24	518	307	1	34	
14	0	0	0	0	28	24	518	307	1	34	
15	0	0	0	0	24	24	518	307	1	34	
0	0	0	0	0	28	24	518	307	1	34	
1	0	0	0	0	31	28	518	307	1	34	
2	0	0	0	0	28	24	518	307	1	34	
3	0	0	0	0	28	23	519	307	1	34	
4	0	0	0	0	24	24	519	307	1	34	
5	0	0	0	0	28	24	519	307	1	34	
6	0	0	0	0	35	31	519	307	1	34	
7	0	0	0	0	24	24	519	307	1	34	
8	0	0	0	0	28	24	519	307	1	34	
9	0	0	0	0	28	24	519	307	1	34	
10	0	0	0	0	28	24	519	307	1	34	
11	0	0	0	0	28	24	519	307	1	34	
12	0	0	0	0	31	28	519	307	1	34	
13	0	0	0	0	28	24	519	307	1	34	
14	0	0	0	0	24	24	519	307	1	34	
15	0	0	0	0	24	24	519	307	1	34	
0	0	0	0	0	28	24	519	307	1	34	
1	0	0	0	0	28	24	519	307	1	34	
2	0	0	0	0	28	24	519	307	1	34	
3	0	0	0	0	31	28	519	307	1	34	
4	0	0	0	0	24	24	519	307	1	34	
5	0	0	0	0	28	24	519	307	1	34	
6	0	0	0	0	24	24	519	307	1	34	
7	0	0	0	0	28	24	519	307	1	34	
8	0	0	0	0	28	24	519	307	1	34	
9	0	0	0	0	31	28	519	307	1	34	
10	0	0	0	0	28	24	519	307	1	34	
11	0	0	0	0	35	31	521	307	2	34	
12	0	0	0	0	24	24	521	307	1	34	
13	0	0	0	0	35	31	521	307	1	34	
14	0	0	0	0	31	28	521	307	1	34	
15	0	0	0	0	28	24	521	307	1	34	
0	0	0	0	0	31	28	519	307	1	34	
1	0	0	0	0	31	28	519	307	1	34	
2	0	0	0	0	24	24	519	307	1	34	
3	0	0	0	0	28	24	519	307	1	34	
4	0	0	0	0	31	28	519	307	1	34	
5	0	0	0	0	28	24	519	307	1	34	
6	0	0	0	0	35	31	519	307	1	34	
7	0	0	0	0	28	24	519	307	1	34	
8	0	0	0	0	31	28	519	307	1	34	
9	0	0	0	0	28	24	519	307	1	34	
10	0	0	0	0	28	24	521	307	1	34	
11	0	0	0	0	28	24	524	307	1	34	
12	0	0	0	0	28	24	524	307	1	34	
13	0	0	0	0	28	24	524	307	1	34	
14	0	0	0	0	31	31	524	307	1	34	
15	0	0	0	0	28	24	524	307	1	34	
0	0	0	0	0	24	24	524	307	1	34	
1	0	0	0	0	31	28	524	307	1	34	
2	0	0	0	0	31	28	524	307	1	34	
3	0	0	0	0	28	24	524	307	1	34	
4	0	0	0	0	28	24	524	307	1	34	
5	0	0	0	0	28	24	524	307	1	34	
6	0	0	0	0	28	24	521	307	1	34	
7	0	0	0	0	24	24	521	307	1	34	
8	0	0	0	0	28	24	521	307	1	34	
9	0	0	0	0	24	24	519	307	1	34	
10	0	0	0	0	31	28	521	307	1	34	
11	0	0	0	0	35	31	521	307	2	34	
12	0	0	0	0	28	24	524	307	1	34	
13	0	0	0	0	31	28	524	307	1	34	
14	0	0	0	0	35	31	524	307	1	34	
15	0	0	0	0	28	24	526	307	1	34	
0	0	0	0	0	28	24	527	307	1	34	
1	0	0	0	0	28	24	527	307	1	34	
2	0	0	0	0	24	24	527	307	1	34	
3	0	0	0	0	28	24	527	307	1	34	
4	0	0	0	0	24	24	527	307	1	34	
5	0	0	0	0	28	24	527	307	1	34	
6	0	0	0	0	24	24	527	307	1	34	
7	0	0	0	0	28	24	527	307	1	34	
8	0	0	0	0	31	28	527	307	1	34	
9	0	0	0	0	31	28	527	307	1	34	
10	0	0	0	0	28	24	526	307	1	34	
11	0	0	0	0	28	24	524	307	1	34	
12	0	0	0	0	28	24	524	307	1	34	
13	0	0	0	0	24	24	521	307	1	34	
14	0	0	0	0	25	24	519	307	1	34	
15	0	0	0	0	35	31	519	307	1	34	
0	0	0	0	0	28	24	519	307	1	34	
1	0	0	0	0	35	31	519	307	1	34	
2	0	0	0	0	31	28	519	307	1	34	
3	0	0	0	0	28	24	519	307	1	34	
4	0	0	0	0	28	24	519	307	1	34	
5	0	0	0	0	28	24	523	307	1	34	
6	0	0	0	0	28	24	524	307	1	34	
7	0	0	0	0	31	28	524	307	1	34	
8	0	0	0	0	24	24	524	307	1	34	
9	0	0	0	0	28	24	524	307	1	34	
10	0	0	0	0	35	31	524	307	1	34	
11	0	0	0	0	24	24	524	307	1	34	
12	0	0	0	0	28	24	524	307	1	34	
13	0	0	0	0	28	24	524	307	1	34	
14	0	0	0	0	28	24	524	307	1	34	
15	0	0	0	0	28	24	524	307	1	34	
0	0	0	0	0	31	28	524	307	1	34	
1	0	0	0	0	28	24	524	307	1	34	
2	0	0	0	0	28	24	524	307	1	34	
3	0	0	0	0	31	28	524	307	1	34	
4	0	0	0	0	31	28	524	307	1	34	
5	0	0	0	0	24	24	526	307	1	34	
6	0	0	0	0	24	24	526	307	1	34	
7	0	0	0	0	28	23	527	307	1	34	
8	0	0	0	0	28	24	527	307	1	34	
9	0	0	0	0	28	24	527	307	1	34	
10	0	0	0	0	28	24	527	307	1	34	
11	0	0	0	0	28	24	527	307	1	34	
12	0	0	0	0	28	24	527	307	1	34	
13	0	0	0	0	28	24	527	307	1	34	
14	0	0	0	0	24	24	527	307	1	34	
15	0	0	0	0	28	24	527	307	1	34	
0	0	0	0	0	31	28	527	307	1	34	
1	0	0	0	0	31	28	527	307	1	34	
2	0	0	0	0	28	24	527	307	1	34	
3	0	0	0	0	31	28	526	307	1	34	
4	0	0	0	0	35	31	526	307	1	34	
5	0	0	0	0	31	28	526	307	1	34	
6	0	0	0	0	28	24	526	307	1	34	
7	0	0	0	0	28	24	526	307	1	34	
8	0	0	0	0	28	24	526	307	1	34	
9	0	0	0	0	28	24	526	307	1	34	
10	0	0	0	0	28	24	527	307	1	34	
11	0	0	0	0	31	28	527	307	1	34	
12	0	0	0	0	31	28	527	307	1	34	
13	0	0	0	0	28	24	527	307	1	34	
14	0	0	0	0	28	24	527	307	1	34	
15	0	0	0	0	28	24	527	307	1	34	
0	0	0	0	0	28	24	527	307	1	34	
1	0	0	0	0	31	28	527	307	1	34	
2	0	0	0	0	28	24	527	307	1	34	
3	0	0	0	0	28	24	527	307	1	34	
4	0	0	0	0	28	24	527	307	1	34	
5	0	0	0	0	35	31	527	307	1	34	
6	0	0	0	0	24	24	527	307	1	34	
7	0	0	0	0	28	24	527	307	1	34	
8	0	0	0	0	35	31	527	307	1	34	
9	0	0	0	0	28	24	527	307	1	34	
10	0	0	0	0	35	31	526	307	1	34	
11	0	0	0	0	28	24	527	307	1	34	
12	0	0	0	0	28	24	527	307	1	34	
13	0	0	0	0	28	24	527	307	1	34	
14	0	0	0	0	34	31	527	307	1	34	
15	0	0	0	0	28	24	527	307	1	34	
0	0	0	0	0	31	28	527	307	1	34	
1	0	0	0	0	31	28	527	307	1	34	
2	0	0	0	0	31	28	527	307	1	34	
3	0	0	0	0	28	24	529	307	1	34	
4	0	0	0	0	28	24	529	307	1	34	
5	0	0	0	0	31	28	529	307	1	34	
6	0	0	0	0	28	24	529	307	1	34	
7	0	0	0	0	28	24	529	307	1	34	
8	0	0	0	0	28	24	527	307	1	34	
9	0	0	0	0	35	31	527	307	2	34	
10	0	0	0	0	31	28	527	307	1	34	
11	0	0	0	0	35	31	527	307	2	34	
12	0	0	0	0	28	24	527	307	1	34	
13	0	0	0	0	28	24	527	307	1	34	
14	0	0	0	0	24	24	527	307	1	34	
15	0	0	0	0	28	24	527	307	1	34	
0	0	0	0	0	24	24	527	307	1	34	
1	0	0	0	0	28	24	527	307	1	34	
2	0	0	0	0	24	24	527	307	1	34	
3	0	0	0	0	28	24	527	307	1	34	
4	0	0	0	0	35	31	527	307	1	34	
5	0	0	0	0	24	24	527	307	1	34	
6	0	0	0	0	35	31	527	307	1	34	
7	0	0	0	0	24	24	529	307	1	34	
8	0	0	0	0	31	28	529	307	1	34	
9	0	0	0	0	28	24	529	307	1	34	
10	0	0	0	0	24	24	529	307	1	34	
11	0	0	0	0	28	24	527	307	1	34	
12	0	0	0	0	31	28	527	307	1	34	
13	0	0	0	0	28	24	527	307	1	34	
14	0	0	0	0	24	24	527	307	1	34	
15	0	0	0	0	31	28	527	307	1	34	
0	0	0	0	0	28	24	527	307	1	34	
1	0	0	0	0	35	31	527	307	1	34	
2	0	0	0	0	28	24	527	307	1	34	
3	0	0	0	0	28	24	527	307	1	34	
4	0	0	0	0	28	24	527	307	1	34	
5	0	0	0	0	31	28	527	307	1	34	
6	0	0	0	0	28	24	527	307	1	34	
7	0	0	0	0	28	24	527	307	1	34	
8	0	0	0	0	28	24	527	307	1	34	
9	0	0	0	0	28	24	527	307	1	34	
10	0	0	0	0	31	28	527	307	1	34	
11	0	0	0	0	35	31	527	307	2	34	
12	0	0	0	0	28	24	529	307	1	34	
13	0	0	0	0	28	24	529	307	1	34	
14	0	0	0	0	28	24	529	307	1	34	
15	0	0	0	0	28	24	529	307	1	34	
0	0	0	0	0	35	31	527	307	1	34	
1	0	0	0	0	28	24	527	307	1	34	
2	0	0	0	0	28	24	527	307	1	34	
3	0	0	0	0	24	24	527	307	1	34	
4	0	0	0	0	28	24	527	307	1	34	
5	0	0	0	0	31	28	527	307	1	34	
6	0	0	0	0	35	31	527	307	1	34	
7	0	0	0	0	28	24	527	307	1	34	
8	0	0	0	0	31	28	527	307	1	34	
9	0	0	0	0	28	24	527	307	1	34	
10	0	0	0	0	31	28	527	307	1	34	
11	0	0	0	0	28	23	527	307	1	34	
12	0	0	0	0	28	24	527	307	1	34	
13	0	0	0	0	28	24	529	307	1	34	
14	0	0	0	0	24	24	529	307	1	34	
15	0	0	0	0	28	24	531	307	1	34	
0	0	0	0	0	24	24	531	307	1	34	
1	0	0	0	0	35	31	531	307	1	34	
2	0	0	0	0	35	31	529	307	1	34	
3	0	0	0	0	28	24	529	307	1	34	
4	0	0	0	0	28	24	527	307	1	34	
5	0	0	0	0	28	24	527	307	1	34	
6	0	0	0	0	28	24	527	307	1	34	
7	0	0	0	0	35	31	527	307	1	34	
8	0	0	0	0	31	28	527	307	1	34	
9	0	0	0	0	28	24	527	307	1	34	
10	0	0	0	0	28	24	527	307	1	34	
11	0	0	0	0	24	24	527	307	1	34	
12	0	0	0	0	28	24	527	307	1	34	
13	0	0	0	0	28	24	527	307	1	34	
14	0	0	0	0	28	24	527	307	1	34	
15	0	0	0	0	28	24	529	307	1	34	
0	0	0	0	0	28	24	529	307	1	34	
1	0	0	0	0	28	24	531	307	1	34	
2	0	0	0	0	31	28	531	307	1	34	
3	0	0	0	0	28	24	531	307	1	34	
4	0	0	0	0	28	24	531	307	1	34	
5	0	0	0	0	28	24	531	307	1	34	
6	0	0	0	0	28	24	531	307	1	34	
7	0	0	0	0	28	24	531	307	1	34	
8	0	0	0	0	28	24	531	307	1	34	
9	0	0	0	0	28	24	531	307	1	34	
10	0	0	0	0	28	24	531	307	1	34	
11	0	0	0	0	31	28	529	307	1	34	
12	0	0	0	0	28	24	529	307	1	34	
13	0	0	0	0	28	24	527	307	1	34	
14	0	0	0	0	24	24	527	307	1	34	
15	0	0	0	0	28	24	527	307	1	34	
0	0	0	0	0	24	24	527	307	1	34	
1	0	0	0	0	31	28	527	307	1	34	
2	0	0	0	0	31	28	527	307	1	34	
3	0	0	0	0	28	24	529	307	1	34	
4	0	0	0	0	28	24	531	307	1	34	
5	0	0	0	0	28	24	531	307	1	34	
6	0	0	0	0	31	28	531	307	1	34	
7	0	0	0	0	28	24	531	307	1	34	
8	0	0	0	0	28	24	531	307	1	34	
9	0	0	0	0	24	24	531	307	1	34	
10	0	0	0	0	28	24	531	307	1	34	
11	0	0	0	0	24	24	531	307	1	34	
12	0	0	0	0	28	24	531	307	1	34	
13	0	0	0	0	28	24	531	307	1	34	
14	0	0	0	0	24	24	529	307	1	34	
15	0	0	0	0	28	24	527	307	1	34	
0	0	0	0	0	28	24	527	307	1	34	
1	0	0	0	0	35	31	527	307	1	34	
2	0	0	0	0	28	24	527	307	1	34	
3	0	0	0	0	28	24	527	307	1	34	
4	0	0	0	0	31	28	527	307	1	34	
5	0	0	0	0	31	28	527	307	1	34	
6	0	0	0	0	35	31	529	307	1	34	
7	0	0	0	0	28	24	531	307	1	34	
8	0	0	0	0	28	24	531	307	1	34	
9	0	0	0	0	28	24	531	307	1	34	
10	0	0	0	0	28	24	531	307	1	34	
11	0	0	0	0	31	28	532	307	1	34	
12	0	0	0	0	28	24	534	307	1	34	
13	0	0	0	0	28	24	534	307	1	34	
14	0	0	0	0	30	28	532	307	1	34	
15	0	0	0	0	28	24	531	307	1	34	
0	0	0	0	0	35	31	531	307	1	34	
1	0	0	0	0	31	28	531	307	1	34	
2	0	0	0	0	28	24	529	307	1	34	
3	0	0	0	0	28	24	529	307	1	34	
4	0	0	0	0	28	24	527	307	1	34	
5	0	0	0	0	28	24	527	307	1	34	
6	0	0	0	0	31	28	527	307	1	34	
7	0	0	0	0	28	24	527	307	1	34	
8	0	0	0	0	31	28	527	307	1	34	
9	0	0	0	0	28	24	527	307	1	34	
10	0	0	0	0	28	24	529	307	1	34	
11	0	0	0	0	24	24	529	307	1	34	
12	0	0	0	0	28	24	531	307	1	34	
13	0	0	0	0	24	24	531	307	1	34	
14	0	0	0	0	28	24	531	307	1	34	
15	0	0	0	0	31	28	531	307	1	34	
0	0	0	0	0	31	28	534	307	1	34	
1	0	0	0	0	31	28	534	307	1	34	
2	0	0	0	0	28	24	534	307	1	34	
3	0	0	0	0	28	24	531	307	1	34	
4	0	0	0	0	35	31	531	307	1	34	
5	0	0	0	0	28	24	531	307	1	34	
6	0	0	0	0	31	28	531	307	1	34	
7	0	0	0	0	28	24	531	307	1	34	
8	0	0	0	0	28	24	529	307	1	34	
9	0	0	0	0	28	24	529	307	1	34	
10	0	0	0	0	31	28	529	307	1	34	
11	0	0	0	0	31	28	529	307	1	34	
12	0	0	0	0	28	24	529	307	1	34	
13	0	0	0	0	28	24	529	307	1	34	
14	0	0	0	0	24	24	531	307	1	34	
15	0	0	0	0	28	23	531	307	1	34	
0	0	0	0	0	30	28	531	307	1	34	
1	0	0	0	0	24	24	531	307	1	34	
2	0	0	0	0	31	28	531	307	1	34	
3	0	0	0	0	31	28	531	307	1	34	
4	0	0	0	0	28	24	531	307	1	34	
5	0	0	0	0	28	24	531	307	1	34	
6	0	0	0	0	28	24	531	307	1	34	
7	0	0	0	0	28	24	531	307	1	34	
8	0	0	0	0	24	24	531	307	1	34	
9	0	0	0	0	28	24	531	307	1	34	
10	0	0	0	0	28	24	531	307	1	34	
11	0	0	0	0	24	24	531	307	1	34	
12	0	0	0	0	31	28	531	307	1	34	
13	0	0	0	0	28	24	531	307	1	34	
14	0	0	0	0	28	24	531	307	1	34	
15	0	0	0	0	31	28	529	307	1	34	
0	0	0	0	0	28	24	531	307	1	34	
1	0	0	0	0	28	24	531	307	1	34	
2	0	0	0	0	31	28	531	307	1	34	
3	0	0	0	0	28	24	531	307	1	34	
4	0	0	0	0	28	24	531	307	1	34	
5	0	0	0	0	31	28	531	307	1	34	
6	0	0	0	0	31	28	531	307	1	34	
7	0	0	0	0	28	24	531	307	1	34	
8	0	0	0	0	31	28	531	307	1	34	
9	0	0	0	0	28	24	531	307	1	34	
10	0	0	0	0	28	24	531	307	1	34	
11	0	0	0	0	31	28	531	307	1	34	
12	0	0	0	0	28	24	531	307	1	34	
13	0	0	0	0	35	31	529	307	1	34	
14	0	0	0	0	24	24	529	307	1	34	
15	0	0	0	0	31	28	529	307	1	34	
0	0	0	0	0	28	24	529	307	1	34	
1	0	0	0	0	35	31	531	308	2	34	
2	0	0	0	0	31	28	531	307	1	34	
3	0	0	0	0	28	24	531	307	1	34	
4	0	0	0	0	31	28	534	307	1	34	
5	0	0	0	0	28	24	536	307	1	34	
6	0	0	0	0	31	28	536	307	1	34	
7	0	0	0	0	28	24	536	307	1	34	
8	0	0	0	0	31	28	537	307	1	34	
9	0	0	0	0	24	24	540	308	1	34	
10	0	0	0	0	28	24	540	307	1	34	
11	0	0	0	0	31	28	540	307	1	34	
12	0	0	0	0	28	24	537	307	1	34	
13	0	0	0	0	24	24	536	307	1	34	
14	0	0	0	0	31	28	536	307	1	34	
15	0	0	0	0	28	24	531	307	1	34	
0	0	0	0	0	28	24	527	307	1	34	
1	0	0	0	0	35	31	527	307	1	34	
2	0	0	0	0	28	24	524	307	1	34	
3	0	0	0	0	28	24	519	307	1	34	
4	0	0	0	0	28	24	519	307	1	34	
5	0	0	0	0	24	24	518	308	1	34	
6	0	0	0	0	31	28	515	307	1	34	
7	0	0	0	0	31	28	515	307	1	34	
8	0	0	0	0	28	24	513	307	1	34	
9	0	0	0	0	28	24	513	307	1	34	
10	0	0	0	0	24	24	512	307	1	34	
11	0	0	0	0	28	24	512	307	1	34	
12	0	0	0	0	24	24	512	307	1	34	
13	0	0	0	0	28	24	512	307	1	34	
14	0	0	0	0	35	31	512	307	1	34	
15	0	0	0	0	28	24	511	307	1	34	
0	0	0	0	0	28	24	511	307	1	34	
1	0	0	0	0	24	24	508	307	1	34	
2	0	0	0	0	31	28	508	307	1	34	
3	0	0	0	0	28	24	504	307	1	34	
4	0	0	0	0	28	24	504	307	1	34	
5	0	0	0	0	28	24	499	307	1	34	
6	0	0	0	0	31	28	497	307	1	34	
7	0	0	0	0	31	28	496	307	1	34	
8	0	0	0	0	28	24	494	307	1	34	
9	0	0	0	0	35	31	492	307	2	34	
10	0	0	0	0	28	24	487	307	1	34	
11	0	0	0	0	24	24	487	307	1	34	
12	0	0	0	0	28	24	487	307	1	34	
13	0	0	0	0	28	24	483	307	1	34	
14	0	0	0	0	28	24	483	307	1	34	
15	0	0	0	0	31	28	481	307	1	34	
0	0	0	0	0	24	24	480	307	1	34	
1	0	0	0	0	28	24	480	307	1	34	
2	0	0	0	0	24	24	480	307	1	34	
3	0	0	0	0	28	24	480	307	1	34	
4	0	0	0	0	35	31	476	307	1	34	
5	0	0	0	0	28	24	476	307	1	34	
6	0	0	0	0	24	24	473	307	1	34	
7	0	0	0	0	31	28	472	307	1	34	
8	0	0	0	0	31	28	472	307	1	34	
9	0	0	0	0	28	24	467	308	1	34	
10	0	0	0	0	28	24	465	307	1	34	
11	0	0	0	0	28	24	463	307	1	34	
12	0	0	0	0	31	28	462	310	1	34	
13	0	0	0	0	35	31	460	307	2	34	
14	0	0	0	0	28	28	455	307	1	34	
15	0	0	0	0	31	28	455	308	1	34	
0	0	0	0	0	28	24	455	308	1	34	
1	0	0	0	0	31	28	454	307	1	34	
2	0	0	0	0	28	24	454	307	1	34	
3	0	0	0	0	24	23	451	307	2	34	
4	0	0	0	0	28	24	451	307	1	34	
5	0	0	0	0	28	24	449	307	1	34	
6	0	0	0	0	28	24	449	307	1	34	
7	0	0	0	0	28	24	448	307	1	34	
8	0	0	0	0	28	24	448	307	1	34	
9	0	0	0	0	31	28	448	307	1	34	
10	0	0	0	0	31	28	444	307	1	34	
11	0	0	0	0	35	31	444	307	2	34	
12	0	0	0	0	28	24	440	307	1	34	
13	0	0	0	0	31	28	440	307	1	34	
14	0	0	0	0	28	24	440	307	1	34	
15	0	0	0	0	28	24	435	307	1	34	
0	0	0	0	0	28	24	433	307	1	34	
1	0	0	0	0	31	28	432	307	1	34	
2	0	0	0	0	28	24	432	307	1	34	
3	0	0	0	0	28	24	430	307	1	34	
4	0	0	0	0	31	28	430	307	1	34	
5	0	0	0	0	28	24	430	307	1	34	
6	0	0	0	0	28	24	430	307	1	34	
7	0	0	0	0	28	24	430	307	1	34	
8	0	0	0	0	28	24	430	307	1	34	
9	0	0	0	0	28	24	432	307	1	34	
10	0	0	0	0	28	24	432	307	1	34	
11	0	0	0	0	28	24	432	307	1	34	
12	0	0	0	0	31	28	433	307	1	34	
13	0	0	0	0	28	24	433	307	1	34	
14	0	0	0	0	25	24	435	307	1	34	
15	0	0	0	0	31	28	435	307	1	34	
0	0	0	0	0	35	31	435	307	1	34	
1	0	0	0	0	31	28	435	307	1	34	
2	0	0	0	0	28	24	435	307	1	34	
3	0	0	0	0	31	28	435	307	1	34	
4	0	0	0	0	28	24	435	307	1	34	
5	0	0	0	0	28	24	435	307	1	34	
6	0	0	0	0	28	24	435	307	1	34	
7	0	0	0	0	28	24	435	307	1	34	
8	0	0	0	0	31	28	435	307	1	34	
9	0	0	0	0	28	24	435	307	1	34	
10	0	0	0	0	31	28	435	307	1	34	
11	0	0	0	0	35	31	435	307	2	34	
12	0	0	0	0	31	28	438	307	1	34	
13	0	0	0	0	28	24	440	307	1	34	
14	0	0	0	0	28	24	440	307	1	34	
15	0	0	0	0	28	24	440	307	1	34	
0	0	0	0	0	31	28	440	307	1	34	
1	0	0	0	0	28	24	440	307	1	34	
2	0	0	0	0	24	24	440	307	1	34	
3	0	0	0	0	19	28	440	307	1	34	
4	0	0	0	0	28	24	440	307	1	34	
5	0	0	0	0	28	24	440	307	1	34	
6	0	0	0	0	35	31	440	307	1	34	
7	0	0	0	0	28	24	440	307	1	34	
8	0	0	0	0	31	28	440	307	1	34	
9	0	0	0	0	28	24	440	307	1	34	
10	0	0	0	0	28	24	440	307	1	34	
11	0	0	0	0	28	24	440	307	1	34	
12	0	0	0	0	28	24	440	307	1	34	
13	0	0	0	0	24	24	441	307	1	34	
14	0	0	0	0	24	24	441	307	1	34	
15	0	0	0	0	24	24	444	307	1	34	
0	0	0	0	0	28	24	444	307	1	34	
1	0	0	0	0	24	24	448	307	1	34	
2	0	0	0	0	31	28	448	307	1	34	
3	0	0	0	0	28	24	448	307	1	34	
4	0	0	0	0	28	24	448	307	1	34	
5	0	0	0	0	28	24	448	307	1	34	
6	0	0	0	0	35	31	448	307	1	34	
7	0	0	0	0	28	24	448	307	1	34	
8	0	0	0	0	24	24	448	307	1	34	
9	0	0	0	0	28	24	448	307	1	34	
10	0	0	0	0	31	28	448	307	1	34	
11	0	0	0	0	35	31	448	307	1	34	
12	0	0	0	0	31	28	448	307	1	34	
13	0	0	0	0	28	24	448	307	1	34	
14	0	0	0	0	28	24	448	307	1	34	
15	0	0	0	0	28	24	448	307	1	34	
0	0	0	0	0	31	28	448	307	1	34	
1	0	0	0	0	31	28	448	307	1	34	
2	0	0	0	0	28	24	448	307	1	34	
3	0	0	0	0	28	28	448	307	1	34	
4	0	0	0	0	28	24	448	307	1	34	
5	0	0	0	0	31	28	448	307	1	34	
6	0	0	0	0	31	28	448	307	1	34	
7	0	0	0	0	31	28	449	307	1	34	
8	0	0	0	0	28	24	449	307	1	34	
9	0	0	0	0	28	24	451	307	1	34	
10	0	0	0	0	28	24	451	307	1	34	
11	0	0	0	0	35	31	451	307	1	34	
12	0	0	0	0	28	24	451	307	1	34	
13	0	0	0	0	28	24	451	307	1	34	
14	0	0	0	0	24	24	451	307	1	34	
15	0	0	0	0	24	24	451	307	1	34	
0	0	0	0	0	28	24	451	307	1	34	
1	0	0	0	0	28	24	451	307	1	34	
2	0	0	0	0	28	24	451	307	1	34	
3	0	0	0	0	35	31	451	307	1	34	
4	0	0	0	0	28	24	451	307	1	34	
5	0	0	0	0	31	28	454	307	1	34	
6	0	0	0	0	35	31	454	307	1	34	
7	0	0	0	0	31	24	455	307	1	34	
8	0	0	0	0	28	25	455	307	1	34	
9	0	0	0	0	27	24	455	307	1	34	
10	0	0	0	0	28	24	455	307	1	34	
11	0	0	0	0	31	28	455	307	1	34	
12	0	0	0	0	31	28	457	307	1	34	
13	0	0	0	0	28	24	459	307	1	34	
14	0	0	0	0	28	24	460	307	1	34	
15	0	0	0	0	28	24	460	307	1	34	
0	0	0	0	0	35	31	459	307	1	34	
1	0	0	0	0	28	24	460	307	1	34	
2	0	0	0	0	28	24	457	307	1	34	
3	0	0	0	0	28	24	457	307	1	34	
4	0	0	0	0	35	31	457	307	1	34	
5	0	0	0	0	31	28	457	307	1	34	
6	0	0	0	0	31	28	460	307	1	34	
7	0	0	0	0	28	24	460	307	1	34	
8	0	0	0	0	28	24	460	307	1	34	
9	0	0	0	0	24	24	460	307	1	34	
10	0	0	0	0	28	24	462	307	1	34	
11	0	0	0	0	35	31	462	307	1	34	
12	0	0	0	0	28	24	463	307	1	34	
13	0	0	0	0	31	28	463	307	1	34	
14	0	0	0	0	24	24	463	307	1	34	
15	0	0	0	0	31	28	463	307	1	34	
0	0	0	0	0	28	24	463	307	1	34	
1	0	0	0	0	31	28	463	307	1	34	
2	0	0	0	0	28	24	463	307	1	34	
3	0	0	0	0	28	24	463	307	1	34	
4	0	0	0	0	35	31	463	307	1	34	
5	0	0	0	0	28	24	463	307	1	34	
6	0	0	0	0	31	28	463	307	1	34	
7	0	0	0	0	28	24	463	307	1	34	
8	0	0	0	0	28	24	463	307	1	34	
9	0	0	0	0	25	24	462	307	1	34	
10	0	0	0	0	31	28	462	307	1	34	
11	0	0	0	0	31	28	463	307	1	34	
12	0	0	0	0	28	24	463	307	1	34	
13	0	0	0	0	35	31	463	307	1	34	
14	0	0	0	0	24	24	463	307	1	34	
15	0	0	0	0	31	28	463	307	1	34	
0	0	0	0	0	24	24	463	307	1	34	
1	0	0	0	0	28	24	465	307	1	34	
2	0	0	0	0	28	24	467	307	1	34	
3	0	0	0	0	28	24	467	307	1	34	
4	0	0	0	0	28	24	467	307	1	34	
5	0	0	0	0	28	24	467	307	1	34	
6	0	0	0	0	35	31	467	307	1	34	
7	0	0	0	0	28	24	467	307	1	34	
8	0	0	0	0	24	24	467	307	1	34	
9	0	0	0	0	28	24	467	307	1	34	
10	0	0	0	0	24	24	467	307	1	34	
11	0	0	0	0	35	31	467	307	1	34	
12	0	0	0	0	28	24	467	307	1	34	
13	0	0	0	0	28	24	467	307	1	34	
14	0	0	0	0	24	24	467	307	1	34	
15	0	0	0	0	31	28	467	307	1	34	
0	0	0	0	0	28	24	467	307	1	34	
1	0	0	0	0	35	31	470	307	1	34	
2	0	0	0	0	31	28	472	307	1	34	
3	0	0	0	0	31	28	472	307	1	34	
4	0	0	0	0	31	28	472	307	1	34	
5	0	0	0	0	28	24	472	307	1	34	
6	0	0	0	0	28	24	472	307	1	34	
7	0	0	0	0	31	28	473	307	1	34	
8	0	0	0	0	31	28	476	307	1	34	
9	0	0	0	0	31	28	476	307	1	34	
10	0	0	0	0	24	24	476	307	1	34	
11	0	0	0	0	31	28	476	307	1	34	
12	0	0	0	0	28	24	473	307	1	34	
13	0	0	0	0	28	24	473	307	1	34	
14	0	0	0	0	28	24	473	307	1	34	
15	0	0	0	0	28	24	473	307	1	34	
0	0	0	0	0	28	24	472	307	1	34	
1	0	0	0	0	28	24	472	307	1	34	
2	0	0	0	0	28	24	472	307	1	34	
3	0	0	0	0	31	28	473	307	1	34	
4	0	0	0	0	31	28	473	307	1	34	
5	0	0	0	0	28	24	473	307	1	34	
6	0	0	0	0	31	28	476	307	1	34	
7	0	0	0	0	28	24	476	307	1	34	
8	0	0	0	0	31	28	476	307	1	34	
9	0	0	0	0	28	24	478	307	1	34	
10	0	0	0	0	31	28	478	307	1	34	
11	0	0	0	0	24	24	480	307	1	34	
12	0	0	0	0	31	28	480	307	1	34	
13	0	0	0	0	31	28	480	307	1	34	
14	0	0	0	0	24	24	480	307	1	34	
15	0	0	0	0	28	24	480	307	1	34	
0	0	0	0	0	31	28	480	307	1	34	
1	0	0	0	0	35	31	478	307	1	34	
2	0	0	0	0	31	28	476	307	1	34	
3	0	0	0	0	24	24	476	307	1	34	
4	0	0	0	0	28	24	476	307	1	34	
5	0	0	0	0	31	28	476	307	1	34	
6	0	0	0	0	28	24	476	307	1	34	
7	0	0	0	0	35	31	476	307	1	34	
8	0	0	0	0	28	24	476	307	1	34	
9	0	0	0	0	24	24	476	307	1	34	
10	0	0	0	0	28	24	476	307	1	34	
11	0	0	0	0	35	28	476	307	1	34	
12	0	0	0	0	31	28	478	307	1	34	
13	0	0	0	0	31	28	480	307	1	34	
14	0	0	0	0	31	28	480	307	1	34	
15	0	0	0	0	31	28	480	307	1	34	
0	0	0	0	0	28	24	480	307	1	34	
1	0	0	0	0	28	24	481	307	1	34	
2	0	0	0	0	31	28	481	307	1	34	
3	0	0	0	0	28	24	483	307	1	34	
4	0	0	0	0	28	24	483	307	1	34	
5	0	0	0	0	28	24	483	307	1	34	
6	0	0	0	0	31	28	483	307	1	34	
7	0	0	0	0	31	28	483	307	1	34	
8	0	0	0	0	28	24	481	307	1	34	
9	0	0	0	0	28	24	481	307	1	34	
10	0	0	0	0	28	24	480	307	1	34	
11	0	0	0	0	28	24	480	307	1	34	
12	0	0	0	0	31	28	480	307	1	34	
13	0	0	0	0	28	24	480	307	1	34	
14	0	0	0	0	28	28	480	307	1	34	
15	0	0	0	0	31	28	478	307	1	34	
0	0	0	0	0	28	24	478	307	1	34	
1	0	0	0	0	24	24	478	307	1	34	
2	0	0	0	0	31	28	478	307	1	34	
3	0	0	0	0	31	28	476	307	1	34	
4	0	0	0	0	28	24	476	307	1	34	
5	0	0	0	0	31	28	476	307	1	34	
6	0	0	0	0	28	24	476	307	1	34	
7	0	0	0	0	31	28	476	307	1	34	
8	0	0	0	0	28	24	476	307	1	34	
9	0	0	0	0	31	28	473	307	1	34	
10	0	0	0	0	28	24	472	307	1	34	
11	0	0	0	0	31	28	472	307	1	34	
12	0	0	0	0	28	24	472	307	1	34	
13	0	0	0	0	28	24	472	307	1	34	
14	0	0	0	0	28	24	472	307	1	34	
15	0	0	0	0	35	31	470	307	2	34	
0	0	0	0	0	31	28	470	307	1	34	
1	0	0	0	0	28	24	470	307	1	34	
2	0	0	0	0	28	24	470	307	1	34	
3	0	0	0	0	28	24	470	307	1	34	
4	0	0	0	0	28	24	472	307	1	34	
5	0	0	0	0	35	31	472	307	2	34	
6	0	0	0	0	35	31	472	307	1	34	
7	0	0	0	0	31	28	472	307	1	34	
8	0	0	0	0	28	24	472	307	1	34	
9	0	0	0	0	28	24	472	307	1	34	
10	0	0	0	0	31	28	472	307	1	34	
11	0	0	0	0	28	24	472	307	1	34	
12	0	0	0	0	24	24	472	307	1	34	
13	0	0	0	0	28	24	472	307	1	34	
14	0	0	0	0	35	31	472	307	1	34	
15	0	0	0	0	28	24	472	307	1	34	
0	0	0	0	0	28	24	472	307	1	34	
1	0	0	0	0	24	24	472	307	1	34	
2	0	0	0	0	31	28	472	307	1	34	
3	0	0	0	0	28	24	472	307	1	34	
4	0	0	0	0	28	24	472	307	1	34	
5	0	0	0	0	28	24	472	307	1	34	
6	0	0	0	0	35	31	472	307	2	34	
7	0	0	0	0	31	28	472	307	1	34	
8	0	0	0	0	28	24	472	307	1	34	
9	0	0	0	0	35	31	473	307	2	34	
10	0	0	0	0	28	24	476	307	1	34	
11	0	0	0	0	28	24	476	307	1	34	
12	0	0	0	0	31	28	476	307	1	34	
13	0	0	0	0	28	24	476	307	1	34	
14	0	0	0	0	28	24	476	307	1	34	
15	0	0	0	0	28	24	476	307	1	34	
0	0	0	0	0	28	24	476	307	1	34	
1	0	0	0	0	28	24	476	307	1	34	
2	0	0	0	0	24	24	476	307	1	34	
3	0	0	0	0	28	24	476	307	1	34	
4	0	0	0	0	31	28	473	307	1	34	
5	0	0	0	0	28	24	476	307	1	34	
6	0	0	0	0	35	31	476	307	1	34	
7	0	0	0	0	28	24	476	307	1	34	
8	0	0	0	0	31	28	476	307	1	34	
9	0	0	0	0	28	24	476	307	1	34	
10	0	0	0	0	31	28	478	307	1	34	
11	0	0	0	0	28	24	480	307	1	34	
12	0	0	0	0	28	24	480	307	1	34	
13	0	0	0	0	24	24	480	307	1	34	
14	0	0	0	0	24	24	480	307	1	34	
15	0	0	0	0	35	31	480	307	1	34	
0	0	0	0	0	24	24	480	307	1	34	
1	0	0	0	0	35	31	480	307	1	34	
2	0	0	0	0	24	24	480	307	1	34	
3	0	0	0	0	31	28	480	307	1	34	
4	0	0	0	0	28	24	480	307	1	34	
5	0	0	0	0	31	28	480	307	1	34	
6	0	0	0	0	28	24	480	307	1	34	
7	0	0	0	0	31	28	480	307	1	34	
8	0	0	0	0	28	24	480	307	1	34	
9	0	0	0	0	28	24	478	307	1	34	
10	0	0	0	0	24	24	480	307	1	34	
11	0	0	0	0	28	24	480	307	1	34	
12	0	0	0	0	24	24	480	307	1	34	
13	0	0	0	0	28	24	480	307	1	34	
14	0	0	0	0	28	24	480	307	1	34	
15	0	0	0	0	28	23	480	307	1	34	
0	0	0	0	0	28	24	480	307	1	34	
1	0	0	0	0	28	24	481	307	1	34	
2	0	0	0	0	24	24	481	307	1	34	
3	0	0	0	0	27	28	481	307	1	34	
4	0	0	0	0	31	28	483	307	1	34	
5	0	0	0	0	28	24	483	307	1	34	
6	0	0	0	0	31	28	481	307	1	34	
7	0	0	0	0	28	24	481	307	1	34	
8	0	0	0	0	28	24	481	307	1	34	
9	0	0	0	0	28	24	480	307	1	34	
10	0	0	0	0	28	24	480	307	1	34	
11	0	0	0	0	28	24	480	307	1	34	
12	0	0	0	0	28	24	480	307	1	34	
13	0	0	0	0	35	31	480	307	1	34	
14	0	0	0	0	28	24	480	307	1	34	
15	0	0	0	0	28	24	480	307	1	34	
0	0	0	0	0	28	24	480	307	1	34	
1	0	0	0	0	35	31	480	307	1	34	
2	0	0	0	0	28	24	481	307	1	34	
3	0	0	0	0	28	24	481	307	1	34	
4	0	0	0	0	28	24	483	307	1	34	
5	0	0	0	0	28	24	483	307	1	34	
6	0	0	0	0	31	28	483	307	1	34	
7	0	0	0	0	28	24	483	307	1	34	
8	0	0	0	0	28	24	486	307	1	34	
9	0	0	0	0	28	24	486	307	1	34	
10	0	0	0	0	28	24	486	307	1	34	
11	0	0	0	0	31	28	483	307	1	34	
12	0	0	0	0	31	28	483	307	1	34	
13	0	0	0	0	28	24	483	307	1	34	
14	0	0	0	0	28	24	483	307	1	34	
15	0	0	0	0	24	24	483	307	1	34	
0	0	0	0	0	28	24	483	307	1	34	
1	0	0	0	0	35	31	481	307	1	34	
2	0	0	0	0	28	24	481	307	1	34	
3	0	0	0	0	28	24	481	307	1	34	
4	0	0	0	0	31	28	483	307	1	34	
5	0	0	0	0	31	28	483	307	1	34	
6	0	0	0	0	35	31	483	307	1	34	
7	0	0	0	0	28	24	483	307	1	34	
8	0	0	0	0	28	24	486	307	1	34	
9	0	0	0	0	28	24	486	307	1	34	
10	0	0	0	0	28	24	487	307	1	34	
11	0	0	0	0	28	24	487	307	1	34	
12	0	0	0	0	24	24	487	307	1	34	
13	0	0	0	0	28	24	487	307	1	34	
14	0	0	0	0	22	24	487	307	1	34	
15	0	0	0	0	24	24	487	307	1	34	
0	0	0	0	0	28	24	487	307	1	34	
1	0	0	0	0	31	28	487	307	1	34	
2	0	0	0	0	28	24	487	307	1	34	
3	0	0	0	0	24	24	487	307	1	34	
4	0	0	0	0	31	28	487	307	1	34	
5	0	0	0	0	31	28	487	307	1	34	
6	0	0	0	0	28	24	487	307	1	34	
7	0	0	0	0	31	28	487	307	1	34	
8	0	0	0	0	28	24	487	307	1	34	
9	0	0	0	0	31	28	487	307	1	34	
10	0	0	0	0	24	24	487	307	1	34	
11	0	0	0	0	35	31	487	307	2	34	
12	0	0	0	0	31	28	487	307	1	34	
13	0	0	0	0	31	28	489	307	1	34	
14	0	0	0	0	31	28	489	307	1	34	
15	0	0	0	0	28	24	492	307	1	34	
0	0	0	0	0	35	31	492	307	1	34	
1	0	0	0	0	28	24	492	307	1	34	
2	0	0	0	0	28	24	492	307	1	34	
3	0	0	0	0	24	24	492	307	1	34	
4	0	0	0	0	28	24	492	307	1	34	
5	0	0	0	0	31	28	492	307	1	34	
6	0	0	0	0	35	31	489	307	1	34	
7	0	0	0	0	28	24	491	307	1	34	
8	0	0	0	0	35	31	489	307	2	34	
9	0	0	0	0	35	31	489	307	2	34	
10	0	0	0	0	35	31	489	307	1	34	
11	0	0	0	0	28	24	492	307	1	34	
12	0	0	0	0	28	24	492	307	1	34	
13	0	0	0	0	28	24	492	307	1	34	
14	0	0	0	0	30	28	492	307	1	34	
15	0	0	0	0	28	24	494	307	1	34	
0	0	0	0	0	24	24	494	307	1	34	
1	0	0	0	0	24	24	496	307	1	34	
2	0	0	0	0	28	24	496	307	1	34	
3	0	0	0	0	28	24	496	307	1	34	
4	0	0	0	0	28	24	496	307	1	34	
5	0	0	0	0	28	24	496	307	1	34	
6	0	0	0	0	24	24	496	307	1	34	
7	0	0	0	0	28	24	496	307	1	34	
8	0	0	0	0	24	24	496	307	1	34	
9	0	0	0	0	28	24	496	307	1	34	
10	0	0	0	0	35	31	496	307	2	34	
11	0	0	0	0	35	31	495	307	2	34	
12	0	0	0	0	28	24	494	307	1	34	
13	0	0	0	0	28	24	494	307	1	34	
14	0	0	0	0	31	28	494	307	1	34	
15	0	0	0	0	24	24	494	307	1	34	
0	0	0	0	0	28	24	496	307	1	34	
1	0	0	0	0	35	31	496	307	2	34	
2	0	0	0	0	28	24	496	307	1	34	
3	0	0	0	0	28	23	496	307	2	34	
4	0	0	0	0	31	28	496	307	1	34	
5	0	0	0	0	28	24	496	307	1	34	
6	0	0	0	0	31	28	496	307	1	34	
7	0	0	0	0	28	24	497	307	1	34	
8	0	0	0	0	28	24	497	307	1	34	
9	0	0	0	0	35	31	497	307	2	34	
10	0	0	0	0	28	24	497	307	1	34	
11	0	0	0	0	28	24	497	307	1	34	
12	0	0	0	0	31	28	496	307	1	34	
13	0	0	0	0	28	24	496	307	1	34	
14	0	0	0	0	24	24	496	307	1	34	
15	0	0	0	0	31	28	496	307	1	34	
0	0	0	0	0	28	24	496	307	1	34	
1	0	0	0	0	35	31	496	307	2	34	
2	0	0	0	0	28	24	496	307	1	34	
3	0	0	0	0	28	24	496	308	1	34	
4	0	0	0	0	31	28	496	307	1	34	
5	0	0	0	0	31	28	496	307	1	34	
6	0	0	0	0	28	24	497	307	1	34	
7	0	0	0	0	28	24	497	307	1	34	
8	0	0	0	0	28	24	499	307	1	34	
9	0	0	0	0	28	24	499	307	1	34	
10	0	0	0	0	28	24	499	307	1	34	
11	0	0	0	0	35	31	499	307	2	34	
12	0	0	0	0	28	24	499	307	1	34	
13	0	0	0	0	31	28	499	307	1	34	
14	0	0	0	0	31	28	499	307	1	34	
15	0	0	0	0	28	24	499	307	1	34	
0	0	0	0	0	28	24	499	307	1	34	
1	0	0	0	0	28	24	499	307	1	34	
2	0	0	0	0	28	24	499	307	1	34	
3	0	0	0	0	19	28	499	307	1	34	
4	0	0	0	0	28	24	499	307	1	34	
5	0	0	0	0	28	24	499	307	1	34	
6	0	0	0	0	24	24	499	308	1	34	
7	0	0	0	0	31	28	499	308	1	34	
8	0	0	0	0	28	24	499	308	1	34	
9	0	0	0	0	31	28	499	308	1	34	
10	0	0	0	0	31	28	499	310	1	34	
11	0	0	0	0	28	24	502	310	1	34	
12	0	0	0	0	28	24	504	308	1	34	
13	0	0	0	0	31	28	504	307	1	34	
14	0	0	0	0	24	24	504	310	1	34	
15	0	0	0	0	28	24	504	310	1	34	
0	0	0	0	0	31	28	504	308	1	34	
1	0	0	0	0	35	31	504	307	2	34	
2	0	0	0	0	28	24	504	308	1	34	
3	0	0	0	0	31	28	504	310	1	34	
4	0	0	0	0	28	24	504	310	1	34	
5	0	0	0	0	28	24	504	310	1	34	
6	0	0	0	0	31	28	504	307	1	34	
7	0	0	0	0	28	24	504	308	1	34	
8	0	0	0	0	28	24	502	310	1	34	
9	0	0	0	0	28	24	500	310	1	34	
10	0	0	0	0	28	24	499	310	1	34	
11	0	0	0	0	28	24	499	310	1	34	
12	0	0	0	0	24	24	499	310	1	34	
13	0	0	0	0	28	24	499	310	1	34	
14	0	0	0	0	28	24	502	310	1	34	
15	0	0	0	0	28	24	504	310	1	34	
0	0	0	0	0	28	24	504	310	1	34	
1	0	0	0	0	28	24	504	310	1	34	
2	0	0	0	0	28	24	504	310	1	34	
3	0	0	0	0	28	24	504	310	1	34	
4	0	0	0	0	31	28	504	310	1	34	
5	0	0	0	0	28	24	504	310	1	34	
6	0	0	0	0	31	28	504	308	1	34	
7	0	0	0	0	28	24	504	307	1	34	
8	0	0	0	0	28	24	504	307	1	34	
9	0	0	0	0	31	28	504	307	1	34	
10	0	0	0	0	28	24	504	307	1	34	
11	0	0	0	0	28	24	504	307	1	34	
12	0	0	0	0	28	24	504	308	1	34	
13	0	0	0	0	28	24	504	307	1	34	
14	0	0	0	0	20	24	504	307	1	34	
15	0	0	0	0	28	24	504	307	1	34	
0	0	0	0	0	35	31	504	307	2	34	
1	0	0	0	0	28	24	504	307	1	34	
2	0	0	0	0	28	24	504	307	1	34	
3	0	0	0	0	28	24	504	308	1	34	
4	0	0	0	0	31	28	505	310	1	34	
5	0	0	0	0	28	24	505	307	1	34	
6	0	0	0	0	28	24	508	310	1	34	
7	0	0	0	0	28	24	508	307	1	34	
8	0	0	0	0	28	24	508	307	1	34	
9	0	0	0	0	35	31	508	307	2	34	
10	0	0	0	0	28	24	508	307	1	34	
11	0	0	0	0	35	31	508	307	2	34	
12	0	0	0	0	35	31	508	307	2	34	
13	0	0	0	0	28	24	505	307	1	34	
14	0	0	0	0	28	24	505	307	1	34	
15	0	0	0	0	28	24	505	307	1	34	
0	0	0	0	0	28	24	504	307	1	34	
1	0	0	0	0	31	28	504	307	1	34	
2	0	0	0	0	31	28	504	307	1	34	
3	0	0	0	0	28	24	504	307	1	34	
4	0	0	0	0	35	31	504	307	2	34	
5	0	0	0	0	28	24	505	307	1	34	
6	0	0	0	0	31	28	508	307	1	34	
7	0	0	0	0	28	24	508	307	2	34	
8	0	0	0	0	28	24	508	307	1	34	
9	0	0	0	0	31	28	508	307	1	34	
10	0	0	0	0	31	28	510	307	1	34	
11	0	0	0	0	28	24	510	307	1	34	
12	0	0	0	0	31	28	511	307	1	34	
13	0	0	0	0	28	24	511	307	1	34	
14	0	0	0	0	28	28	511	307	1	34	
15	0	0	0	0	35	31	510	307	2	34	
0	0	0	0	0	28	24	510	307	1	34	
1	0	0	0	0	31	28	510	307	1	34	
2	0	0	0	0	28	24	510	307	1	34	
3	0	0	0	0	28	24	508	307	1	34	
4	0	0	0	0	31	28	508	307	1	34	
5	0	0	0	0	31	28	508	307	1	34	
6	0	0	0	0	28	24	508	307	1	34	
7	0	0	0	0	28	24	508	307	1	34	
8	0	0	0	0	28	24	508	307	1	34	
9	0	0	0	0	25	24	508	307	1	34	
10	0	0	0	0	28	24	508	307	1	34	
11	0	0	0	0	31	28	508	307	1	34	
12	0	0	0	0	31	28	510	307	1	34	
13	0	0	0	0	28	24	510	307	1	34	
14	0	0	0	0	31	28	510	307	1	34	
15	0	0	0	0	31	28	510	307	1	34	
0	0	0	0	0	28	24	511	307	1	34	
1	0	0	0	0	28	24	511	307	1	34	
2	0	0	0	0	28	24	511	307	1	34	
3	0	0	0	0	28	24	510	307	1	34	
4	0	0	0	0	28	24	510	307	1	34	
5	0	0	0	0	28	24	510	307	1	34	
6	0	0	0	0	31	28	510	307	1	34	
7	0	0	0	0	28	24	510	307	1	34	
8	0	0	0	0	28	24	510	307	1	34	
9	0	0	0	0	31	28	510	307	1	34	
10	0	0	0	0	31	28	510	307	1	34	
11	0	0	0	0	28	24	510	307	1	34	
12	0	0	0	0	28	24	510	307	1	34	
13	0	0	0	0	31	28	511	307	1	34	
14	0	0	0	0	24	24	511	307	1	34	
15	0	0	0	0	28	24	511	307	1	34	
0	0	0	0	0	24	24	511	307	1	34	
1	0	0	0	0	35	31	512	307	2	34	
2	0	0	0	0	31	28	512	307	1	34	
3	0	0	0	0	24	24	512	307	1	34	
4	0	0	0	0	31	28	512	307	1	34	
5	0	0	0	0	28	24	512	307	1	34	
6	0	0	0	0	31	28	512	307	1	34	
7	0	0	0	0	31	28	512	307	1	34	
8	0	0	0	0	31	28	512	307	1	34	
9	0	0	0	0	24	24	512	307	1	34	
10	0	0	0	0	28	24	512	307	1	34	
11	0	0	0	0	24	24	511	307	1	34	
12	0	0	0	0	31	28	511	307	1	34	
13	0	0	0	0	28	24	511	307	1	34	
14	0	0	0	0	31	28	511	307	1	34	
15	0	0	0	0	31	28	511	307	1	34	
0	0	0	0	0	28	24	511	307	1	34	
1	0	0	0	0	28	24	511	307	1	34	
2	0	0	0	0	31	28	512	307	1	34	
3	0	0	0	0	28	24	512	307	1	34	
4	0	0	0	0	28	24	513	307	1	34	
5	0	0	0	0	28	24	515	307	1	34	
6	0	0	0	0	31	28	515	307	1	34	
7	0	0	0	0	28	24	515	307	1	34	
8	0	0	0	0	24	24	515	307	1	34	
9	0	0	0	0	28	24	515	307	1	34	
10	0	0	0	0	28	24	515	307	1	34	
11	0	0	0	0	28	24	515	307	1	34	
12	0	0	0	0	28	24	515	307	1	34	
13	0	0	0	0	28	24	515	307	1	34	
14	0	0	0	0	28	28	515	307	1	34	
15	0	0	0	0	31	28	515	307	1	34	
0	0	0	0	0	28	24	513	307	1	34	
1	0	0	0	0	24	24	513	307	1	34	
2	0	0	0	0	28	24	513	307	1	34	
3	0	0	0	0	28	24	513	307	1	34	
4	0	0	0	0	31	28	513	307	1	34	
5	0	0	0	0	31	28	513	307	1	34	
6	0	0	0	0	28	24	515	307	1	34	
7	0	0	0	0	31	28	515	307	1	34	
8	0	0	0	0	28	24	515	307	1	34	
9	0	0	0	0	25	24	515	307	1	34	
10	0	0	0	0	28	24	515	307	1	34	
11	0	0	0	0	31	28	515	307	1	34	
12	0	0	0	0	24	24	515	307	1	34	
13	0	0	0	0	28	24	515	307	1	34	
14	0	0	0	0	28	24	515	307	1	34	
15	0	0	0	0	31	28	515	307	1	34	
0	0	0	0	0	31	28	515	307	1	34	
1	0	0	0	0	28	24	515	307	1	34	
2	0	0	0	0	28	24	515	307	1	34	
3	0	0	0	0	24	24	515	307	1	34	
4	0	0	0	0	28	24	513	307	1	34	
5	0	0	0	0	28	24	513	307	1	34	
6	0	0	0	0	24	24	513	307	1	34	
7	0	0	0	0	28	24	513	307	1	34	
8	0	0	0	0	28	24	513	307	1	34	
9	0	0	0	0	31	28	513	307	1	34	
10	0	0	0	0	31	28	515	307	1	34	
11	0	0	0	0	28	24	515	307	2	34	
12	0	0	0	0	24	24	515	307	1	34	
13	0	0	0	0	28	24	515	307	1	34	
14	0	0	0	0	30	28	515	307	1	34	
15	0	0	0	0	31	28	515	307	1	34	
0	0	0	0	0	28	24	515	307	1	34	
1	0	0	0	0	28	24	515	307	1	34	
2	0	0	0	0	31	28	515	307	1	34	
3	0	0	0	0	28	24	515	307	1	34	
4	0	0	0	0	28	24	515	307	1	34	
5	0	0	0	0	28	24	513	307	1	34	
6	0	0	0	0	28	24	513	307	1	34	
7	0	0	0	0	31	28	512	307	1	34	
8	0	0	0	0	24	24	512	307	1	34	
9	0	0	0	0	28	24	512	307	1	34	
10	0	0	0	0	28	24	512	307	1	34	
11	0	0	0	0	35	31	512	307	2	34	
12	0	0	0	0	24	24	512	307	1	34	
13	0	0	0	0	35	31	512	307	2	34	
14	0	0	0	0	28	24	512	307	1	34	
15	0	0	0	0	28	24	512	307	1	34	
0	0	0	0	0	31	28	513	307	1	34	
1	0	0	0	0	31	28	513	307	1	34	
2	0	0	0	0	24	24	515	307	1	34	
3	0	0	0	0	31	28	515	307	1	34	
4	0	0	0	0	31	28	515	307	1	34	
5	0	0	0	0	31	28	515	307	1	34	
6	0	0	0	0	35	31	515	307	1	34	
7	0	0	0	0	28	24	515	307	1	34	
8	0	0	0	0	28	24	515	307	1	34	
9	0	0	0	0	31	28	515	307	1	34	
10	0	0	0	0	28	24	513	307	1	34	
11	0	0	0	0	28	24	513	307	1	34	
12	0	0	0	0	35	31	513	307	2	34	
13	0	0	0	0	31	28	512	307	1	34	
14	0	0	0	0	24	24	512	307	1	34	
15	0	0	0	0	28	24	512	307	1	34	
0	0	0	0	0	28	24	512	307	1	34	
1	0	0	0	0	24	24	512	307	1	34	
2	0	0	0	0	28	24	513	307	1	34	
3	0	0	0	0	28	24	513	307	1	34	
4	0	0	0	0	28	24	515	307	1	34	
5	0	0	0	0	28	24	515	307	1	34	
6	0	0	0	0	28	24	515	307	1	34	
7	0	0	0	0	35	31	515	307	2	34	
8	0	0	0	0	28	24	518	307	1	34	
9	0	0	0	0	25	24	518	307	1	34	
10	0	0	0	0	35	31	518	307	2	34	
11	0	0	0	0	31	28	518	307	1	34	
12	0	0	0	0	24	24	516	307	1	34	
13	0	0	0	0	31	28	515	307	1	34	
14	0	0	0	0	28	24	515	307	1	34	
15	0	0	0	0	28	24	515	307	1	34	
0	0	0	0	0	28	24	515	307	1	34	
1	0	0	0	0	28	24	515	307	1	34	
2	0	0	0	0	31	28	513	307	1	34	
3	0	0	0	0	31	31	513	307	2	34	
4	0	0	0	0	28	24	513	307	1	34	
5	0	0	0	0	28	24	513	307	1	34	
6	0	0	0	0	35	31	513	307	1	34	
7	0	0	0	0	31	28	515	307	1	34	
8	0	0	0	0	28	24	515	307	1	34	
9	0	0	0	0	24	24	515	307	1	34	
10	0	0	0	0	28	24	515	307	1	34	
11	0	0	0	0	28	24	515	307	1	34	
12	0	0	0	0	28	24	516	307	1	34	
13	0	0	0	0	28	24	518	307	1	34	
14	0	0	0	0	30	28	518	307	1	34	
15	0	0	0	0	31	28	518	308	1	34	
0	0	0	0	0	28	24	518	307	1	34	
1	0	0	0	0	31	28	515	307	1	34	
2	0	0	0	0	28	24	515	307	1	34	
3	0	0	0	0	28	24	515	310	1	34	
4	0	0	0	0	31	28	515	310	1	34	
5	0	0	0	0	28	24	515	310	1	34	
6	0	0	0	0	28	24	515	307	1	34	
7	0	0	0	0	28	24	515	308	1	34	
8	0	0	0	0	28	24	515	310	1	34	
9	0	0	0	0	31	28	515	310	1	34	
10	0	0	0	0	28	24	515	307	1	34	
11	0	0	0	0	35	31	515	307	2	34	
12	0	0	0	0	28	24	518	307	1	34	
13	0	0	0	0	28	24	518	307	1	34	
14	0	0	0	0	28	24	519	307	1	34	
15	0	0	0	0	24	24	519	307	1	34	
0	0	0	0	0	28	24	519	307	1	34	
1	0	0	0	0	35	31	519	310	2	34	
2	0	0	0	0	28	24	519	310	1	34	
3	0	0	0	0	28	24	518	310	1	34	
4	0	0	0	0	28	24	518	308	1	34	
5	0	0	0	0	31	28	518	308	1	34	
6	0	0	0	0	35	31	515	307	1	34	
7	0	0	0	0	28	24	515	307	1	34	
8	0	0	0	0	28	24	515	307	1	34	
9	0	0	0	0	31	28	515	307	1	34	
10	0	0	0	0	28	24	515	307	1	34	
11	0	0	0	0	28	24	515	307	1	34	
12	0	0	0	0	24	24	515	307	1	34	
13	0	0	0	0	28	24	518	307	1	34	
14	0	0	0	0	22	24	518	307	1	34	
15	0	0	0	0	28	24	519	307	2	34	
0	0	0	0	0	30	28	519	307	1	34	
1	0	0	0	0	31	28	519	307	1	34	
2	0	0	0	0	31	28	519	307	1	34	
3	0	0	0	0	28	24	519	308	1	34	
4	0	0	0	0	31	28	519	308	1	34	
5	0	0	0	0	28	24	519	308	1	34	
6	0	0	0	0	28	24	519	307	1	34	
7	0	0	0	0	28	24	519	307	1	34	
8	0	0	0	0	28	24	519	307	1	34	
9	0	0	0	0	25	24	519	308	1	34	
10	0	0	0	0	31	28	519	307	1	34	
11	0	0	0	0	28	24	519	307	1	34	
12	0	0	0	0	28	24	519	307	1	34	
13	0	0	0	0	28	24	519	307	1	34	
14	0	0	0	0	31	28	519	307	1	34	
15	0	0	0	0	31	28	519	307	1	34	
0	0	0	0	0	28	24	519	307	1	34	
1	0	0	0	0	28	24	519	307	1	34	
2	0	0	0	0	31	28	519	307	1	34	
3	0	0	0	0	28	24	519	307	1	34	
4	0	0	0	0	28	24	519	307	1	34	
5	0	0	0	0	28	24	519	307	1	34	
6	0	0	0	0	31	28	519	307	1	34	
7	0	0	0	0	31	28	519	307	1	34	
8	0	0	0	0	28	24	519	307	1	34	
9	0	0	0	0	28	24	519	307	1	34	
10	0	0	0	0	31	28	519	307	1	34	
11	0	0	0	0	28	24	519	307	1	34	
12	0	0	0	0	28	24	519	307	1	34	
13	0	0	0	0	28	24	519	307	1	34	
14	0	0	0	0	30	28	519	307	1	34	
15	0	0	0	0	31	28	519	307	1	34	
0	0	0	0	0	28	24	519	307	1	34	
1	0	0	0	0	24	24	519	307	1	34	
2	0	0	0	0	31	28	519	307	1	34	
3	0	0	0	0	31	28	519	307	1	34	
4	0	0	0	0	31	28	519	307	1	34	
5	0	0	0	0	28	24	521	307	1	34	
6	0	0	0	0	28	24	521	307	1	34	
7	0	0	0	0	28	24	524	307	1	34	
8	0	0	0	0	28	24	524	307	1	34	
9	0	0	0	0	28	24	524	307	1	34	
10	0	0	0	0	28	24	524	307	1	34	
11	0	0	0	0	31	28	524	307	1	34	
12	0	0	0	0	28	24	524	307	1	34	
13	0	0	0	0	28	24	524	307	1	34	
14	0	0	0	0	31	28	524	307	1	34	
15	0	0	0	0	35	31	524	307	2	34	
0	0	0	0	0	31	28	524	307	1	34	
1	0	0	0	0	28	24	524	308	1	34	
2	0	0	0	0	28	24	521	307	1	34	
3	0	0	0	0	28	24	519	310	1	34	
4	0	0	0	0	31	28	519	307	1	34	
5	0	0	0	0	28	24	519	307	1	34	
6	0	0	0	0	24	24	519	307	1	34	
7	0	0	0	0	28	24	519	307	1	34	
8	0	0	0	0	31	28	519	307	1	34	
9	0	0	0	0	28	24	519	307	1	34	
10	0	0	0	0	28	24	519	307	1	34	
11	0	0	0	0	35	31	521	307	2	34	
12	0	0	0	0	31	28	524	307	1	34	
13	0	0	0	0	28	24	524	307	1	34	
14	0	0	0	0	20	24	524	307	1	34	
15	0	0	0	0	28	24	524	307	1	34	
0	0	0	0	0	35	31	524	307	2	34	
1	0	0	0	0	28	24	524	307	1	34	
2	0	0	0	0	28	24	524	307	1	34	
3	0	0	0	0	35	31	524	307	2	34	
4	0	0	0	0	28	24	524	307	1	34	
5	0	0	0	0	28	24	524	307	1	34	
6	0	0	0	0	28	24	524	307	1	34	
7	0	0	0	0	28	24	521	307	1	34	
8	0	0	0	0	28	24	521	307	1	34	
9	0	0	0	0	35	31	521	307	2	34	
10	0	0	0	0	28	24	521	307	1	34	
11	0	0	0	0	28	24	524	307	1	34	
12	0	0	0	0	28	24	524	307	1	34	
13	0	0	0	0	28	24	524	307	1	34	
14	0	0	0	0	28	24	524	307	1	34	
15	0	0	0	0	28	24	524	307	1	34	
0	0	0	0	0	24	24	526	307	1	34	
1	0	0	0	0	28	24	526	307	1	34	
2	0	0	0	0	24	24	526	307	1	34	
3	0	0	0	0	28	24	526	307	1	34	
4	0	0	0	0	35	31	526	307	2	34	
5	0	0	0	0	28	24	526	307	1	34	
6	0	0	0	0	24	24	526	307	1	34	
7	0	0	0	0	24	24	526	307	1	34	
8	0	0	0	0	31	28	524	307	1	34	
9	0	0	0	0	28	24	524	307	1	34	
10	0	0	0	0	31	28	524	307	1	34	
11	0	0	0	0	28	24	524	307	1	34	
12	0	0	0	0	31	28	524	307	1	34	
13	0	0	0	0	28	24	524	307	1	34	
14	0	0	0	0	24	24	524	307	1	34	
15	0	0	0	0	35	31	524	307	2	34	
0	0	0	0	0	28	24	524	307	1	34	
1	0	0	0	0	35	31	524	307	2	34	
2	0	0	0	0	24	24	524	307	1	34	
3	0	0	0	0	31	24	524	307	2	34	
4	0	0	0	0	24	24	524	307	1	34	
5	0	0	0	0	28	24	526	307	1	34	
6	0	0	0	0	31	28	526	307	1	34	
7	0	0	0	0	31	28	526	307	1	34	
8	0	0	0	0	28	24	527	307	1	34	
9	0	0	0	0	28	24	527	307	1	34	
10	0	0	0	0	28	24	527	307	1	34	
11	0	0	0	0	35	31	526	307	2	34	
12	0	0	0	0	31	28	526	307	1	34	
13	0	0	0	0	31	28	526	307	1	34	
14	0	0	0	0	31	28	526	307	1	34	
15	0	0	0	0	35	31	524	307	2	34	
0	0	0	0	0	28	24	524	307	1	34	
1	0	0	0	0	28	24	524	307	1	34	
2	0	0	0	0	28	24	524	307	1	34	
3	0	0	0	0	28	24	524	307	1	34	
4	0	0	0	0	31	28	524	307	1	34	
5	0	0	0	0	31	28	524	307	1	34	
6	0	0	0	0	28	24	524	307	1	34	
7	0	0	0	0	28	24	526	307	1	34	
8	0	0	0	0	28	24	526	307	1	34	
9	0	0	0	0	24	24	526	307	1	34	
10	0	0	0	0	35	31	526	307	2	34	
11	0	0	0	0	28	24	527	307	1	34	
12	0	0	0	0	28	24	527	307	1	34	
13	0	0	0	0	28	24	527	307	1	34	
14	0	0	0	0	25	24	527	307	1	34	
15	0	0	0	0	28	24	527	307	1	34	
0	0	0	0	0	31	28	526	307	1	34	
1	0	0	0	0	31	28	526	307	1	34	
2	0	0	0	0	31	28	526	307	1	34	
3	0	0	0	0	28	24	524	307	1	34	
4	0	0	0	0	28	24	524	307	1	34	
5	0	0	0	0	28	24	524	307	1	34	
6	0	0	0	0	31	28	524	307	1	34	
7	0	0	0	0	24	24	524	307	1	34	
8	0	0	0	0	31	28	524	307	1	34	
9	0	0	0	0	28	24	524	307	1	34	
10	0	0	0	0	31	28	524	307	1	34	
11	0	0	0	0	24	24	524	307	1	34	
12	0	0	0	0	31	28	526	307	1	34	
13	0	0	0	0	28	24	526	307	1	34	
14	0	0	0	0	28	24	526	307	1	34	
15	0	0	0	0	31	28	526	307	1	34	
0	0	0	0	0	28	24	526	307	1	34	
1	0	0	0	0	28	24	526	307	1	34	
2	0	0	0	0	28	24	526	307	1	34	
3	0	0	0	0	28	24	526	307	1	34	
4	0	0	0	0	31	28	526	307	1	34	
5	0	0	0	0	28	24	524	307	1	34	
6	0	0	0	0	24	24	524	307	1	34	
7	0	0	0	0	31	28	524	307	1	34	
8	0	0	0	0	31	28	524	307	1	34	
9	0	0	0	0	31	28	524	307	1	34	
10	0	0	0	0	28	24	524	307	1	34	
11	0	0	0	0	28	24	524	307	1	34	
12	0	0	0	0	28	24	524	307	1	34	
13	0	0	0	0	28	24	524	307	1	34	
14	0	0	0	0	24	24	526	307	1	34	
15	0	0	0	0	24	24	526	307	1	34	
0	0	0	0	0	31	28	526	307	1	34	
1	0	0	0	0	31	28	526	307	1	34	
2	0	0	0	0	28	24	527	307	1	34	
3	0	0	0	0	31	28	527	307	1	34	
4	0	0	0	0	35	31	527	307	2	34	
5	0	0	0	0	31	28	527	307	1	34	
6	0	0	0	0	28	24	527	307	1	34	
7	0	0	0	0	28	24	526	307	1	34	
8	0	0	0	0	28	24	526	307	1	34	
9	0	0	0	0	28	24	524	307	1	34	
10	0	0	0	0	28	24	524	307	1	34	
11	0	0	0	0	31	28	524	307	1	34	
12	0	0	0	0	31	28	521	307	1	34	
13	0	0	0	0	28	24	519	307	1	34	
14	0	0	0	0	28	24	519	307	1	34	
15	0	0	0	0	28	24	519	307	1	34	
0	0	0	0	0	28	24	519	307	1	34	
1	0	0	0	0	31	28	519	307	1	34	
2	0	0	0	0	28	24	519	307	1	34	
3	0	0	0	0	28	24	519	307	1	34	
4	0	0	0	0	28	24	519	307	1	34	
5	0	0	0	0	35	31	519	307	2	34	
6	0	0	0	0	24	24	519	307	1	34	
7	0	0	0	0	28	24	519	307	1	34	
8	0	0	0	0	28	24	519	307	1	34	
9	0	0	0	0	31	28	519	307	1	34	
10	0	0	0	0	28	24	519	307	1	34	
11	0	0	0	0	31	28	519	307	1	34	
12	0	0	0	0	31	28	518	307	1	34	
13	0	0	0	0	28	24	518	307	1	34	
14	0	0	0	0	25	24	515	307	1	34	
15	0	0	0	0	28	24	515	307	1	34	
0	0	0	0	0	31	28	515	307	1	34	
1	0	0	0	0	28	24	515	307	1	34	
2	0	0	0	0	28	24	513	307	1	34	
3	0	0	0	0	24	24	513	307	1	34	
4	0	0	0	0	31	28	513	307	1	34	
5	0	0	0	0	31	28	512	307	1	34	
6	0	0	0	0	28	24	512	307	1	34	
7	0	0	0	0	31	24	513	307	2	34	
8	0	0	0	0	31	30	513	307	1	34	
9	0	0	0	0	28	24	513	307	1	34	
10	0	0	0	0	28	24	513	307	1	34	
11	0	0	0	0	24	24	513	307	1	34	
12	0	0	0	0	28	24	515	307	1	34	
13	0	0	0	0	28	24	515	307	1	34	
14	0	0	0	0	28	24	515	307	1	34	
15	0	0	0	0	28	24	515	307	1	34	
0	0	0	0	0	28	24	515	307	1	34	
1	0	0	0	0	31	28	515	307	1	34	
2	0	0	0	0	28	24	513	307	1	34	
3	0	0	0	0	31	28	513	307	1	34	
4	0	0	0	0	28	24	513	307	1	34	
5	0	0	0	0	31	28	513	307	1	34	
6	0	0	0	0	31	28	513	307	1	34	
7	0	0	0	0	31	28	513	307	1	34	
8	0	0	0	0	31	28	513	307	1	34	
9	0	0	0	0	28	24	513	307	1	34	
10	0	0	0	0	28	24	513	307	1	34	
11	0	0	0	0	28	24	515	307	1	34	
12	0	0	0	0	28	24	515	307	1	34	
13	0	0	0	0	28	24	515	307	1	34	
14	0	0	0	0	24	24	515	307	1	34	
15	0	0	0	0	24	24	515	307	1	34	
0	0	0	0	0	31	28	515	307	1	34	
1	0	0	0	0	35	31	515	307	2	34	
2	0	0	0	0	24	24	515	310	1	34	
3	0	0	0	0	28	24	513	308	1	34	
4	0	0	0	0	28	24	513	310	1	34	
5	0	0	0	0	31	28	513	310	1	34	
6	0	0	0	0	28	24	512	308	1	34	
7	0	0	0	0	28	24	512	308	1	34	
8	0	0	0	0	24	24	512	307	1	34	
9	0	0	0	0	30	28	512	308	1	34	
10	0	0	0	0	35	31	512	310	2	34	
11	0	0	0	0	31	28	512	310	1	34	
12	0	0	0	0	31	28	513	308	1	34	
13	0	0	0	0	31	28	513	307	1	34	
14	0	0	0	0	28	24	515	310	1	34	
15	0	0	0	0	31	28	515	310	1	34	
0	0	0	0	0	28	24	515	310	1	34	
1	0	0	0	0	31	28	515	310	1	34	
2	0	0	0	0	28	24	518	308	1	34	
3	0	0	0	0	24	24	518	310	1	34	
4	0	0	0	0	24	24	518	307	1	34	
5	0	0	0	0	28	24	518	307	1	34	
6	0	0	0	0	31	28	518	307	1	34	
7	0	0	0	0	28	24	515	307	1	34	
8	0	0	0	0	28	24	515	307	1	34	
9	0	0	0	0	28	24	515	308	1	34	
10	0	0	0	0	35	31	515	307	2	34	
11	0	0	0	0	28	24	515	308	1	34	
12	0	0	0	0	28	24	515	307	1	34	
13	0	0	0	0	28	24	513	307	1	34	
14	0	0	0	0	24	24	513	307	1	34	
15	0	0	0	0	28	24	513	307	1	34	
0	0	0	0	0	31	28	515	307	1	34	
1	0	0	0	0	31	28	515	307	1	34	
2	0	0	0	0	31	28	515	307	1	34	
3	0	0	0	0	35	31	515	307	2	34	
4	0	0	0	0	28	24	515	307	1	34	
5	0	0	0	0	28	24	518	307	1	34	
6	0	0	0	0	28	24	518	307	1	34	
7	0	0	0	0	28	24	518	307	1	34	
8	0	0	0	0	28	24	518	307	1	34	
9	0	0	0	0	28	24	518	307	1	34	
10	0	0	0	0	28	24	518	308	1	34	
11	0	0	0	0	35	31	518	307	2	34	
12	0	0	0	0	24	24	515	307	1	34	
13	0	0	0	0	28	24	515	307	1	34	
14	0	0	0	0	28	24	515	307	1	34	
15	0	0	0	0	28	24	515	307	1	34	
0	0	0	0	0	28	24	515	307	1	34	
1	0	0	0	0	28	24	515	307	1	34	
2	0	0	0	0	24	24	515	308	1	34	
3	0	0	0	0	28	24	515	307	1	34	
4	0	0	0	0	24	24	515	307	1	34	
5	0	0	0	0	28	24	515	307	1	34	
6	0	0	0	0	24	24	515	310	1	34	
7	0	0	0	0	28	24	518	307	1	34	
8	0	0	0	0	31	28	518	307	1	34	
9	0	0	0	0	31	28	519	307	1	34	
10	0	0	0	0	28	24	519	307	1	34	
11	0	0	0	0	28	24	519	307	1	34	
12	0	0	0	0	28	24	519	307	1	34	
13	0	0	0	0	35	31	519	307	2	34	
14	0	0	0	0	24	24	519	307	1	34	
15	0	0	0	0	28	24	519	307	1	34	
0	0	0	0	0	28	24	519	307	1	34	
1	0	0	0	0	24	24	518	307	1	34	
2	0	0	0	0	28	24	518	307	1	34	
3	0	0	0	0	28	24	515	307	1	34	
4	0	0	0	0	28	24	515	307	1	34	
5	0	0	0	0	31	28	515	307	1	34	
6	0	0	0	0	28	24	515	307	1	34	
7	0	0	0	0	31	28	513	307	1	34	
8	0	0	0	0	31	28	513	307	1	34	
9	0	0	0	0	25	24	515	307	1	34	
10	0	0	0	0	28	24	515	307	1	34	
11	0	0	0	0	31	24	515	307	2	34	
12	0	0	0	0	28	24	515	307	1	34	
13	0	0	0	0	28	24	515	307	1	34	
14	0	0	0	0	28	24	518	307	1	34	
15	0	0	0	0	28	24	518	307	1	34	
0	0	0	0	0	28	24	518	307	1	34	
1	0	0	0	0	28	24	515	307	1	34	
2	0	0	0	0	28	24	515	307	1	34	
3	0	0	0	0	28	24	515	307	1	34	
4	0	0	0	0	28	24	513	307	1	34	
5	0	0	0	0	28	24	512	307	1	34	
6	0	0	0	0	35	31	511	307	1	34	
7	0	0	0	0	28	24	511	307	1	34	
8	0	0	0	0	28	24	510	307	1	34	
9	0	0	0	0	35	31	510	307	2	34	
10	0	0	0	0	28	24	510	307	1	34	
11	0	0	0	0	28	24	508	307	1	34	
12	0	0	0	0	28	24	510	307	1	34	
13	0	0	0	0	28	24	510	307	1	34	
14	0	0	0	0	24	24	510	307	1	34	
15	0	0	0	0	28	24	510	307	1	34	
0	0	0	0	0	28	24	510	307	1	34	
1	0	0	0	0	35	31	511	307	2	34	
2	0	0	0	0	28	24	511	307	1	34	
3	0	0	0	0	28	24	510	307	1	34	
4	0	0	0	0	28	24	510	307	1	34	
5	0	0	0	0	28	24	508	307	1	34	
6	0	0	0	0	24	24	508	307	1	34	
7	0	0	0	0	28	24	505	307	1	34	
8	0	0	0	0	24	24	504	307	1	34	
9	0	0	0	0	25	24	504	307	1	34	
10	0	0	0	0	35	31	504	307	2	34	
11	0	0	0	0	31	28	499	307	1	34	
12	0	0	0	0	28	24	497	307	1	34	
13	0	0	0	0	31	28	496	307	1	34	
14	0	0	0	0	28	24	496	307	1	34	
15	0	0	0	0	28	24	496	307	1	34	
0	0	0	0	0	28	24	496	307	1	34	
1	0	0	0	0	28	24	496	307	1	34	
2	0	0	0	0	28	24	495	307	1	34	
3	0	0	0	0	28	24	496	307	1	34	
4	0	0	0	0	28	24	496	307	1	34	
5	0	0	0	0	31	28	496	307	1	34	
6	0	0	0	0	35	31	496	307	1	34	
7	0	0	0	0	28	24	496	307	1	34	
8	0	0	0	0	28	24	496	307	1	34	
9	0	0	0	0	28	24	496	307	1	34	
10	0	0	0	0	28	24	494	307	1	34	
11	0	0	0	0	28	24	494	307	1	34	
12	0	0	0	0	35	31	492	307	2	34	
13	0	0	0	0	31	28	492	307	1	34	
14	0	0	0	0	28	28	489	307	1	34	
15	0	0	0	0	28	24	487	307	1	34	
0	0	0	0	0	31	28	487	307	1	34	
1	0	0	0	0	31	28	487	307	1	34	
2	0	0	0	0	28	24	486	307	1	34	
3	0	0	0	0	35	31	483	307	2	34	
4	0	0	0	0	28	24	483	307	1	34	
5	0	0	0	0	28	24	483	307	1	34	
6	0	0	0	0	28	24	483	307	1	34	
7	0	0	0	0	28	24	481	307	1	34	
8	0	0	0	0	28	24	481	307	1	34	
9	0	0	0	0	31	28	481	307	1	34	
10	0	0	0	0	31	28	480	307	1	34	
11	0	0	0	0	24	24	480	307	1	34	
12	0	0	0	0	35	31	480	307	2	34	
13	0	0	0	0	28	24	480	307	1	34	
14	0	0	0	0	31	28	480	307	1	34	
15	0	0	0	0	28	24	478	307	1	34	
0	0	0	0	0	28	24	476	307	1	34	
1	0	0	0	0	35	31	473	307	2	34	
2	0	0	0	0	31	28	472	307	1	34	
3	0	0	0	0	28	24	472	307	1	34	
4	0	0	0	0	28	24	472	307	1	34	
5	0	0	0	0	24	24	472	307	1	34	
6	0	0	0	0	31	28	468	307	1	34	
7	0	0	0	0	28	24	467	307	1	34	
8	0	0	0	0	31	28	467	307	1	34	
9	0	0	0	0	31	28	467	307	1	34	
10	0	0	0	0	28	24	467	307	1	34	
11	0	0	0	0	28	24	467	307	1	34	
12	0	0	0	0	28	24	467	307	1	34	
13	0	0	0	0	28	24	467	307	1	34	
14	0	0	0	0	24	24	467	307	1	34	
15	0	0	0	0	28	24	467	307	1	34	
0	0	0	0	0	24	24	467	307	1	34	
1	0	0	0	0	31	28	465	307	1	34	
2	0	0	0	0	28	24	463	307	1	34	
3	0	0	0	0	28	24	463	307	1	34	
4	0	0	0	0	31	28	463	307	1	34	
5	0	0	0	0	28	24	460	307	1	34	
6	0	0	0	0	28	24	460	307	1	34	
7	0	0	0	0	28	24	455	307	1	34	
8	0	0	0	0	28	24	455	307	1	34	
9	0	0	0	0	28	24	455	307	1	34	
10	0	0	0	0	31	28	455	307	1	34	
11	0	0	0	0	24	24	454	307	1	34	
12	0	0	0	0	28	24	451	307	1	34	
13	0	0	0	0	28	24	451	307	1	34	
14	0	0	0	0	28	24	451	307	1	34	
15	0	0	0	0	28	24	451	307	2	34	
0	0	0	0	0	31	28	451	307	1	34	
1	0	0	0	0	28	24	451	307	1	34	
2	0	0	0	0	28	24	449	307	1	34	
3	0	0	0	0	28	24	449	307	1	34	
4	0	0	0	0	31	28	448	307	1	34	
5	0	0	0	0	35	31	448	307	2	34	
6	0	0	0	0	35	31	448	307	2	34	
7	0	0	0	0	31	28	448	307	1	34	
8	0	0	0	0	31	28	444	307	1	34	
9	0	0	0	0	28	24	444	307	1	34	
10	0	0	0	0	31	28	440	307	1	34	
11	0	0	0	0	28	24	440	307	1	34	
12	0	0	0	0	31	28	440	307	1	34	
13	0	0	0	0	28	24	438	307	1	34	
14	0	0	0	0	25	24	435	307	1	34	
15	0	0	0	0	24	24	435	307	1	34	
0	0	0	0	0	28	24	433	307	1	34	
1	0	0	0	0	24	24	432	307	1	34	
2	0	0	0	0	31	28	432	307	1	34	
3	0	0	0	0	31	28	432	307	1	34	
4	0	0	0	0	28	24	432	307	1	34	
5	0	0	0	0	35	31	432	307	2	34	
6	0	0	0	0	28	24	432	307	1	34	
7	0	0	0	0	28	24	432	307	1	34	
8	0	0	0	0	28	24	432	307	1	34	
9	0	0	0	0	28	24	432	307	1	34	
10	0	0	0	0	28	24	432	307	1	34	
11	0	0	0	0	28	24	430	307	1	34	
12	0	0	0	0	28	24	428	307	1	34	
13	0	0	0	0	28	24	425	307	1	34	
14	0	0	0	0	28	24	423	307	1	34	
15	0	0	0	0	28	24	423	307	1	34	
0	0	0	0	0	28	24	423	307	1	34	
1	0	0	0	0	28	24	420	307	1	34	
2	0	0	0	0	28	24	419	307	1	34	
3	0	0	0	0	28	24	419	307	1	34	
4	0	0	0	0	24	24	415	307	1	34	
5	0	0	0	0	28	24	415	307	1	34	
6	0	0	0	0	31	28	415	307	1	34	
7	0	0	0	0	28	24	415	307	1	34	
8	0	0	0	0	31	28	415	307	1	34	
9	0	0	0	0	35	31	415	307	2	34	
10	0	0	0	0	31	28	415	307	1	34	
11	0	0	0	0	31	28	415	307	1	34	
12	0	0	0	0	28	24	415	307	1	34	
13	0	0	0	0	28	24	415	307	1	34	
14	0	0	0	0	24	24	414	307	1	34	
15	0	0	0	0	31	28	412	307	1	34	
0	0	0	0	0	35	31	412	307	1	34	
1	0	0	0	0	24	24	408	307	1	34	
2	0	0	0	0	28	24	408	307	1	34	
3	0	0	0	0	28	24	408	307	1	34	
4	0	0	0	0	28	24	406	307	1	34	
5	0	0	0	0	28	24	403	307	1	34	
6	0	0	0	0	28	24	403	307	1	34	
7	0	0	0	0	28	24	403	307	1	34	
8	0	0	0	0	28	24	401	307	1	34	
9	0	0	0	0	25	24	401	307	1	34	
10	0	0	0	0	28	24	401	307	1	34	
11	0	0	0	0	31	28	401	307	1	34	
12	0	0	0	0	28	24	401	307	1	34	
13	0	0	0	0	28	24	401	307	1	34	
14	0	0	0	0	28	24	401	307	1	34	
15	0	0	0	0	28	24	401	307	1	34	
0	0	0	0	0	28	24	399	307	1	34	
1	0	0	0	0	28	24	399	307	1	34	
2	0	0	0	0	24	24	399	307	1	34	
3	0	0	0	0	31	28	399	307	1	34	
4	0	0	0	0	28	24	398	307	1	34	
5	0	0	0	0	31	28	396	307	1	34	
6	0	0	0	0	35	31	396	307	1	34	
7	0	0	0	0	31	28	391	307	1	34	
8	0	0	0	0	28	24	391	307	1	34	
9	0	0	0	0	28	24	391	307	1	34	
10	0	0	0	0	28	24	391	307	1	34	
11	0	0	0	0	28	24	390	307	1	34	
12	0	0	0	0	31	28	390	307	1	34	
13	0	0	0	0	28	24	390	307	1	34	
14	0	0	0	0	25	24	390	307	1	34	
15	0	0	0	0	31	28	390	307	1	34	
0	0	0	0	0	28	24	390	307	1	34	
1	0	0	0	0	31	28	390	307	1	34	
2	0	0	0	0	28	24	390	307	1	34	
3	0	0	0	0	24	24	390	307	1	34	
4	0	0	0	0	28	24	390	307	1	34	
5	0	0	0	0	24	24	387	307	1	34	
6	0	0	0	0	28	24	387	307	1	34	
7	0	0	0	0	24	24	387	307	1	34	
8	0	0	0	0	28	24	385	307	1	34	
9	0	0	0	0	28	24	385	307	1	34	
10	0	0	0	0	28	24	384	307	1	34	
11	0	0	0	0	31	28	384	307	1	34	
12	0	0	0	0	28	24	384	307	1	34	
13	0	0	0	0	31	28	384	307	1	34	
14	0	0	0	0	28	24	384	307	1	34	
15	0	0	0	0	31	28	384	307	1	34	
0	0	0	0	0	28	24	384	307	1	34	
1	0	0	0	0	35	31	384	307	2	34	
2	0	0	0	0	28	24	384	307	1	34	
3	0	0	0	0	31	24	384	307	2	34	
4	0	0	0	0	24	24	384	307	1	34	
5	0	0	0	0	31	28	384	307	1	34	
6	0	0	0	0	31	28	385	307	1	34	
7	0	0	0	0	28	24	385	307	1	34	
8	0	0	0	0	35	31	387	307	2	34	
9	0	0	0	0	28	24	387	307	1	34	
10	0	0	0	0	31	28	387	307	1	34	
11	0	0	0	0	31	28	387	307	1	34	
12	0	0	0	0	31	28	387	307	1	34	
13	0	0	0	0	28	24	387	307	1	34	
14	0	0	0	0	28	28	385	307	1	34	
15	0	0	0	0	31	28	385	307	1	34	
0	0	0	0	0	28	24	385	307	1	34	
1	0	0	0	0	35	31	385	307	2	34	
2	0	0	0	0	28	24	385	307	1	34	
3	0	0	0	0	28	24	387	307	1	34	
4	0	0	0	0	28	24	387	307	1	34	
5	0	0	0	0	31	28	390	307	1	34	
6	0	0	0	0	28	24	391	307	1	34	
7	0	0	0	0	28	24	391	307	1	34	
8	0	0	0	0	28	24	391	307	1	34	
9	0	0	0	0	25	24	395	307	1	34	
10	0	0	0	0	35	31	396	307	2	34	
11	0	0	0	0	35	31	398	307	2	34	
12	0	0	0	0	28	24	398	307	1	34	
13	0	0	0	0	28	24	399	307	1	34	
14	0	0	0	0	28	24	399	307	1	34	
15	0	0	0	0	28	24	399	307	1	34	
0	0	0	0	0	28	24	399	307	1	34	
1	0	0	0	0	28	24	399	307	1	34	
2	0	0	0	0	31	28	399	307	1	34	
3	0	0	0	0	24	24	399	307	1	34	
4	0	0	0	0	28	24	399	307	1	34	
5	0	0	0	0	28	24	399	310	1	34	
6	0	0	0	0	24	24	399	310	1	34	
7	0	0	0	0	28	24	399	310	1	34	
8	0	0	0	0	28	24	399	310	1	34	
9	0	0	0	0	31	28	399	308	1	34	
10	0	0	0	0	28	24	399	308	1	34	
11	0	0	0	0	28	24	401	307	1	34	
12	0	0	0	0	31	28	403	307	1	34	
13	0	0	0	0	28	24	403	307	1	34	
14	0	0	0	0	33	31	406	307	2	34	
15	0	0	0	0	28	24	408	310	1	34	
0	0	0	0	0	28	24	408	310	1	34	
1	0	0	0	0	35	31	408	310	2	34	
2	0	0	0	0	28	24	408	308	1	34	
3	0	0	0	0	28	24	408	307	1	34	
4	0	0	0	0	28	24	408	307	1	34	
5	0	0	0	0	31	28	408	307	1	34	
6	0	0	0	0	28	24	408	308	1	34	
7	0	0	0	0	28	24	408	310	1	34	
8	0	0	0	0	28	24	408	308	1	34	
9	0	0	0	0	31	28	408	307	1	34	
10	0	0	0	0	35	31	408	310	2	34	
11	0	0	0	0	31	28	408	310	1	34	
12	0	0	0	0	28	24	408	308	1	34	
13	0	0	0	0	28	24	408	308	1	34	
14	0	0	0	0	28	24	409	307	1	34	
15	0	0	0	0	28	24	412	307	1	34	
0	0	0	0	0	28	24	412	307	1	34	
1	0	0	0	0	28	24	414	307	1	34	
2	0	0	0	0	28	24	414	307	1	34	
3	0	0	0	0	31	28	415	307	1	34	
4	0	0	0	0	31	28	415	307	1	34	
5	0	0	0	0	28	24	415	307	1	34	
6	0	0	0	0	28	24	415	307	1	34	
7	0	0	0	0	28	24	415	307	1	34	
8	0	0	0	0	35	31	415	307	2	34	
9	0	0	0	0	28	24	414	307	1	34	
10	0	0	0	0	28	24	414	307	1	34	
11	0	0	0	0	31	28	414	307	1	34	
12	0	0	0	0	28	24	414	308	1	34	
13	0	0	0	0	28	24	414	308	1	34	
14	0	0	0	0	24	24	414	308	1	34	
15	0	0	0	0	28	24	415	307	1	34	
0	0	0	0	0	28	24	415	308	1	34	
1	0	0	0	0	24	24	415	310	1	34	
2	0	0	0	0	28	24	415	310	1	34	
3	0	0	0	0	28	24	417	310	1	34	
4	0	0	0	0	28	24	419	308	1	34	
5	0	0	0	0	28	24	422	307	1	34	
6	0	0	0	0	28	24	423	308	1	34	
7	0	0	0	0	28	24	423	308	1	34	
8	0	0	0	0	28	24	423	307	1	34	
9	0	0	0	0	35	31	423	310	2	34	
10	0	0	0	0	31	28	423	308	1	34	
11	0	0	0	0	35	31	423	308	2	34	
12	0	0	0	0	28	24	423	307	1	34	
13	0	0	0	0	28	24	423	307	1	34	
14	0	0	0	0	31	28	423	307	1	34	
15	0	0	0	0	28	24	423	307	1	34	
0	0	0	0	0	28	24	422	307	1	34	
1	0	0	0	0	31	28	422	307	1	34	
2	0	0	0	0	28	24	422	307	1	34	
3	0	0	0	0	28	24	423	307	1	34	
4	0	0	0	0	31	28	423	307	1	34	
5	0	0	0	0	28	24	423	308	1	34	
6	0	0	0	0	28	24	423	307	1	34	
7	0	0	0	0	31	24	425	307	2	34	
8	0	0	0	0	28	24	428	307	1	34	
9	0	0	0	0	31	28	428	307	1	34	
10	0	0	0	0	24	24	430	308	1	34	
11	0	0	0	0	28	24	430	307	1	34	
12	0	0	0	0	24	24	432	307	1	34	
13	0	0	0	0	28	24	432	307	1	34	
14	0	0	0	0	33	31	432	307	2	34	
15	0	0	0	0	24	24	432	307	1	34	
0	0	0	0	0	31	28	430	307	1	34	
1	0	0	0	0	31	28	430	307	1	34	
2	0	0	0	0	31	28	428	307	1	34	
3	0	0	0	0	28	24	428	308	1	34	
4	0	0	0	0	31	28	428	307	1	34	
5	0	0	0	0	28	24	428	307	1	34	
6	0	0	0	0	28	24	428	307	1	34	
7	0	0	0	0	24	24	428	307	1	34	
8	0	0	0	0	28	24	430	307	1	34	
9	0	0	0	0	24	24	431	307	1	34	
10	0	0	0	0	28	24	432	307	1	34	
11	0	0	0	0	35	31	432	307	2	34	
12	0	0	0	0	28	24	433	307	1	34	
13	0	0	0	0	28	24	435	307	1	34	
14	0	0	0	0	28	24	435	307	1	34	
15	0	0	0	0	28	24	436	307	1	34	
0	0	0	0	0	31	28	438	307	1	34	
1	0	0	0	0	24	24	440	307	1	34	
2	0	0	0	0	28	24	440	307	1	34	
3	0	0	0	0	28	24	440	307	1	34	
4	0	0	0	0	35	31	440	307	2	34	
5	0	0	0	0	28	24	440	307	1	34	
6	0	0	0	0	24	24	440	307	1	34	
7	0	0	0	0	35	31	440	307	2	34	
8	0	0	0	0	28	24	440	307	1	34	
9	0	0	0	0	28	24	440	307	1	34	
10	0	0	0	0	28	24	440	307	1	34	
11	0	0	0	0	28	24	440	307	1	34	
12	0	0	0	0	31	28	440	307	1	34	
13	0	0	0	0	28	24	440	307	1	34	
14	0	0	0	0	24	24	440	307	1	34	
15	0	0	0	0	28	24	440	307	1	34	
0	0	0	0	0	28	24	440	307	1	34	
1	0	0	0	0	24	24	441	307	1	34	
2	0	0	0	0	28	24	444	307	1	34	
3	0	0	0	0	28	24	444	307	1	34	
4	0	0	0	0	28	24	444	307	1	34	
5	0	0	0	0	28	24	444	307	1	34	
6	0	0	0	0	28	24	444	307	1	34	
7	0	0	0	0	28	24	444	307	1	34	
8	0	0	0	0	35	31	444	307	2	34	
9	0	0	0	0	28	24	444	307	1	34	
10	0	0	0	0	28	24	444	307	1	34	
11	0	0	0	0	31	28	444	307	1	34	
12	0	0	0	0	31	28	444	307	1	34	
13	0	0	0	0	28	24	444	307	1	34	
14	0	0	0	0	28	24	444	307	1	34	
15	0	0	0	0	31	28	444	307	1	34	
0	0	0	0	0	28	24	444	307	1	34	
1	0	0	0	0	24	24	448	307	1	34	
2	0	0	0	0	28	24	448	307	1	34	
3	0	0	0	0	28	24	448	307	1	34	
4	0	0	0	0	28	24	448	307	1	34	
5	0	0	0	0	31	28	448	307	1	34	
6	0	0	0	0	24	24	449	307	1	34	
7	0	0	0	0	28	24	449	307	1	34	
8	0	0	0	0	28	24	451	307	1	34	
9	0	0	0	0	31	28	451	307	1	34	
10	0	0	0	0	24	24	451	307	1	34	
11	0	0	0	0	28	24	451	307	1	34	
12	0	0	0	0	35	31	449	307	1	34	
13	0	0	0	0	28	24	449	307	1	34	
14	0	0	0	0	24	24	449	307	1	34	
15	0	0	0	0	28	24	449	307	1	34	
0	0	0	0	0	28	24	448	307	1	34	
1	0	0	0	0	31	28	448	307	1	34	
2	0	0	0	0	31	28	448	307	1	34	
3	0	0	0	0	28	24	448	307	1	34	
4	0	0	0	0	28	24	449	307	1	34	
5	0	0	0	0	28	24	449	307	1	34	
6	0	0	0	0	28	24	451	307	1	34	
7	0	0	0	0	31	28	451	307	1	34	
8	0	0	0	0	28	24	454	307	1	34	
9	0	0	0	0	28	24	455	307	1	34	
10	0	0	0	0	31	28	455	307	1	34	
11	0	0	0	0	31	28	455	307	1	34	
12	0	0	0	0	28	24	455	307	1	34	
13	0	0	0	0	31	28	455	307	1	34	
14	0	0	0	0	24	24	455	307	1	34	
15	0	0	0	0	28	24	455	307	1	34	
0	0	0	0	0	35	31	455	307	2	34	
1	0	0	0	0	28	24	455	307	1	34	
2	0	0	0	0	28	24	455	307	1	34	
3	0	0	0	0	28	24	455	307	1	34	
4	0	0	0	0	31	28	455	307	1	34	
5	0	0	0	0	31	28	455	307	1	34	
6	0	0	0	0	31	28	455	307	1	34	
7	0	0	0	0	28	24	455	307	1	34	
8	0	0	0	0	28	24	455	307	1	34	
9	0	0	0	0	28	24	455	307	1	34	
10	0	0	0	0	28	24	457	307	1	34	
11	0	0	0	0	28	24	460	307	2	34	
12	0	0	0	0	31	28	460	307	1	34	
13	0	0	0	0	28	24	460	307	1	34	
14	0	0	0	0	30	28	462	307	1	34	
15	0	0	0	0	28	24	462	307	1	34	
0	0	0	0	0	28	24	462	307	1	34	
1	0	0	0	0	24	24	463	307	1	34	
2	0	0	0	0	28	24	462	307	1	34	
3	0	0	0	0	31	28	462	307	1	34	
4	0	0	0	0	31	28	462	307	1	34	
5	0	0	0	0	31	28	460	307	1	34	
6	0	0	0	0	28	24	460	307	1	34	
7	0	0	0	0	28	24	460	307	1	34	
8	0	0	0	0	28	24	460	307	1	34	
9	0	0	0	0	28	24	460	307	1	34	
10	0	0	0	0	24	24	460	307	1	34	
11	0	0	0	0	35	31	460	307	2	34	
12	0	0	0	0	28	24	460	307	1	34	
13	0	0	0	0	28	24	462	307	1	34	
14	0	0	0	0	28	24	463	307	1	34	
15	0	0	0	0	28	24	463	307	1	34	
0	0	0	0	0	31	28	463	307	1	34	
1	0	0	0	0	28	24	463	307	1	34	
2	0	0	0	0	28	24	465	307	1	34	
3	0	0	0	0	31	28	465	307	1	34	
4	0	0	0	0	31	28	467	307	1	34	
5	0	0	0	0	24	24	467	307	1	34	
6	0	0	0	0	24	24	467	307	1	34	
7	0	0	0	0	28	24	467	307	1	34	
8	0	0	0	0	35	31	465	307	2	34	
9	0	0	0	0	28	24	465	307	1	34	
10	0	0	0	0	28	24	463	307	1	34	
11	0	0	0	0	28	24	463	307	1	34	
12	0	0	0	0	28	24	463	307	1	34	
13	0	0	0	0	31	28	463	307	1	34	
14	0	0	0	0	24	24	463	307	1	34	
15	0	0	0	0	28	24	463	307	1	34	
0	0	0	0	0	24	24	463	307	1	34	
1	0	0	0	0	35	31	465	307	2	34	
2	0	0	0	0	28	24	467	307	1	34	
3	0	0	0	0	31	28	467	307	1	34	
4	0	0	0	0	28	24	467	307	1	34	
5	0	0	0	0	28	24	470	307	1	34	
6	0	0	0	0	28	24	472	307	1	34	
7	0	0	0	0	28	24	472	307	1	34	
8	0	0	0	0	31	28	472	307	1	34	
9	0	0	0	0	25	24	472	307	1	34	
10	0	0	0	0	28	24	472	307	1	34	
11	0	0	0	0	35	31	472	307	2	34	
12	0	0	0	0	28	24	470	307	1	34	
13	0	0	0	0	28	24	467	307	1	34	
14	0	0	0	0	31	28	467	307	1	34	
15	0	0	0	0	28	24	467	307	1	34	
0	0	0	0	0	28	24	467	307	1	34	
1	0	0	0	0	31	28	467	307	1	34	
2	0	0	0	0	28	24	467	307	1	34	
3	0	0	0	0	24	24	467	307	1	34	
4	0	0	0	0	31	28	467	307	1	34	
5	0	0	0	0	28	24	467	307	1	34	
6	0	0	0	0	24	24	468	307	1	34	
7	0	0	0	0	31	28	472	307	1	34	
8	0	0	0	0	28	24	472	307	1	34	
9	0	0	0	0	28	24	472	307	1	34	
10	0	0	0	0	31	28	472	307	1	34	
11	0	0	0	0	24	24	472	307	1	34	
12	0	0	0	0	28	24	472	307	1	34	
13	0	0	0	0	35	31	472	307	2	34	
14	0	0	0	0	25	24	472	307	1	34	
15	0	0	0	0	28	24	472	307	1	34	
0	0	0	0	0	28	24	472	307	1	34	
1	0	0	0	0	28	24	472	307	1	34	
2	0	0	0	0	31	28	472	307	1	34	
3	0	0	0	0	28	24	472	307	1	34	
4	0	0	0	0	28	24	472	307	1	34	
5	0	0	0	0	28	24	472	307	1	34	
6	0	0	0	0	28	24	472	307	1	34	
7	0	0	0	0	31	28	472	307	1	34	
8	0	0	0	0	24	24	472	307	1	34	
9	0	0	0	0	31	28	473	307	1	34	
10	0	0	0	0	28	24	476	307	1	34	
11	0	0	0	0	31	28	476	307	1	34	
12	0	0	0	0	31	28	478	307	1	34	
13	0	0	0	0	31	28	480	307	1	34	
14	0	0	0	0	28	24	480	307	1	34	
15	0	0	0	0	28	24	480	307	1	34	
0	0	0	0	0	28	24	480	307	1	34	
1	0	0	0	0	28	24	480	307	1	34	
2	0	0	0	0	31	28	480	307	1	34	
3	0	0	0	0	35	31	480	307	2	34	
4	0	0	0	0	31	28	480	307	1	34	
5	0	0	0	0	31	28	480	307	1	34	
6	0	0	0	0	35	31	478	307	1	34	
7	0	0	0	0	28	24	478	307	1	34	
8	0	0	0	0	28	24	476	307	1	34	
9	0	0	0	0	28	24	476	307	1	34	
10	0	0	0	0	28	24	476	307	1	34	
11	0	0	0	0	28	24	478	307	1	34	
12	0	0	0	0	24	24	480	307	1	34	
13	0	0	0	0	28	24	480	307	1	34	
14	0	0	0	0	22	24	480	307	1	34	
15	0	0	0	0	24	24	480	307	2	34	
0	0	0	0	0	28	28	481	307	1	34	
1	0	0	0	0	24	24	481	307	1	34	
2	0	0	0	0	28	24	483	308	1	34	
3	0	0	0	0	31	28	483	308	1	34	
4	0	0	0	0	28	24	483	307	1	34	
5	0	0	0	0	28	24	483	310	1	34	
6	0	0	0	0	35	31	483	307	2	34	
7	0	0	0	0	28	24	483	308	1	34	
8	0	0	0	0	24	24	481	308	1	34	
9	0	0	0	0	28	24	480	307	1	34	
10	0	0	0	0	28	24	480	310	1	34	
11	0	0	0	0	28	24	480	310	1	34	
12	0	0	0	0	28	24	480	310	1	34	
13	0	0	0	0	31	28	480	307	1	34	
14	0	0	0	0	28	24	480	308	1	34	
15	0	0	0	0	28	24	480	308	1	34	
0	0	0	0	0	28	24	480	308	1	34	
1	0	0	0	0	35	31	480	310	2	34	
2	0	0	0	0	28	24	480	307	1	34	
3	0	0	0	0	28	28	481	307	1	34	
4	0	0	0	0	28	24	481	307	1	34	
5	0	0	0	0	31	28	483	308	1	34	
6	0	0	0	0	31	28	483	308	1	34	
7	0	0	0	0	35	31	483	307	1	34	
8	0	0	0	0	35	31	486	307	2	34	
9	0	0	0	0	35	31	486	307	2	34	
10	0	0	0	0	31	28	486	307	1	34	
11	0	0	0	0	28	24	483	307	1	34	
12	0	0	0	0	28	24	483	307	1	34	
13	0	0	0	0	28	24	483	307	1	34	
14	0	0	0	0	30	28	483	307	1	34	
15	0	0	0	0	31	28	481	307	1	34	
0	0	0	0	0	28	24	481	307	1	34	
1	0	0	0	0	24	24	481	307	1	34	
2	0	0	0	0	28	24	481	307	1	34	
3	0	0	0	0	35	31	481	307	2	34	
4	0	0	0	0	31	28	483	307	1	34	
5	0	0	0	0	28	24	483	307	1	34	
6	0	0	0	0	28	24	483	307	1	34	
7	0	0	0	0	31	28	486	307	1	34	
8	0	0	0	0	28	24	487	307	1	34	
9	0	0	0	0	28	24	487	307	1	34	
10	0	0	0	0	28	24	487	307	1	34	
11	0	0	0	0	24	24	487	307	1	34	
12	0	0	0	0	24	24	487	307	1	34	
13	0	0	0	0	28	24	487	307	1	34	
14	0	0	0	0	28	24	487	307	1	34	
15	0	0	0	0	28	24	487	307	1	34	
0	0	0	0	0	31	28	487	307	1	34	
1	0	0	0	0	28	24	487	307	1	34	
2	0	0	0	0	31	28	486	307	1	34	
3	0	0	0	0	28	24	486	307	1	34	
4	0	0	0	0	28	24	486	307	1	34	
5	0	0	0	0	28	24	486	310	1	34	
6	0	0	0	0	28	24	486	308	1	34	
7	0	0	0	0	28	24	486	308	1	34	
8	0	0	0	0	31	28	487	308	1	34	
9	0	0	0	0	28	24	487	307	1	34	
10	0	0	0	0	28	24	487	307	1	34	
11	0	0	0	0	28	24	487	308	1	34	
12	0	0	0	0	31	28	487	310	1	34	
13	0	0	0	0	28	24	492	310	1	34	
14	0	0	0	0	24	24	492	310	1	34	
15	0	0	0	0	31	28	492	307	1	34	
0	0	0	0	0	28	24	492	307	1	34	
1	0	0	0	0	35	31	492	307	2	34	
2	0	0	0	0	28	24	492	308	1	34	
3	0	0	0	0	28	24	492	307	1	34	
4	0	0	0	0	31	28	489	307	1	34	
5	0	0	0	0	31	28	487	308	1	34	
6	0	0	0	0	28	24	487	307	1	34	
7	0	0	0	0	28	24	487	307	1	34	
8	0	0	0	0	28	24	487	307	1	34	
9	0	0	0	0	28	24	487	307	1	34	
10	0	0	0	0	28	24	487	307	1	34	
11	0	0	0	0	35	31	487	307	2	34	
12	0	0	0	0	28	24	487	307	1	34	
13	0	0	0	0	31	28	487	307	1	34	
14	0	0	0	0	31	28	487	307	1	34	
15	0	0	0	0	28	24	489	307	1	34	
0	0	0	0	0	28	24	492	307	1	34	
1	0	0	0	0	28	24	492	307	1	34	
2	0	0	0	0	28	24	492	307	1	34	
3	0	0	0	0	19	28	492	308	1	34	
4	0	0	0	0	28	24	492	308	1	34	
5	0	0	0	0	28	24	492	307	1	34	
6	0	0	0	0	24	24	492	307	1	34	
7	0	0	0	0	31	28	492	307	1	34	
8	0	0	0	0	28	24	492	307	1	34	
9	0	0	0	0	31	28	489	307	1	34	
10	0	0	0	0	31	28	487	307	1	34	
11	0	0	0	0	28	24	487	307	1	34	
12	0	0	0	0	28	24	487	307	1	34	
13	0	0	0	0	31	28	487	307	1	34	
14	0	0	0	0	24	24	487	307	1	34	
15	0	0	0	0	28	24	487	307	1	34	
0	0	0	0	0	31	28	487	307	1	34	
1	0	0	0	0	35	31	487	307	2	34	
2	0	0	0	0	28	24	489	307	1	34	
3	0	0	0	0	31	24	492	307	2	34	
4	0	0	0	0	35	31	492	307	2	34	
5	0	0	0	0	31	28	494	307	1	34	
6	0	0	0	0	28	24	494	307	1	34	
7	0	0	0	0	24	24	496	307	1	34	
8	0	0	0	0	28	24	496	307	1	34	
9	0	0	0	0	24	24	496	307	1	34	
10	0	0	0	0	24	24	496	307	1	34	
11	0	0	0	0	35	31	494	307	2	34	
12	0	0	0	0	28	24	494	307	1	34	
13	0	0	0	0	31	28	494	307	1	34	
14	0	0	0	0	31	28	492	307	1	34	
15	0	0	0	0	28	24	492	307	1	34	
0	0	0	0	0	35	31	492	307	2	34	
1	0	0	0	0	28	24	492	307	1	34	
2	0	0	0	0	24	24	492	307	1	34	
3	0	0	0	0	28	24	492	307	1	34	
4	0	0	0	0	24	24	494	307	1	34	
5	0	0	0	0	28	24	494	307	1	34	
6	0	0	0	0	31	28	496	307	1	34	
7	0	0	0	0	28	24	496	307	1	34	
8	0	0	0	0	31	28	496	307	1	34	
9	0	0	0	0	28	24	497	307	1	34	
10	0	0	0	0	28	24	497	307	1	34	
11	0	0	0	0	28	24	499	307	1	34	
12	0	0	0	0	28	24	499	307	1	34	
13	0	0	0	0	31	28	499	307	1	34	
14	0	0	0	0	24	24	497	307	1	34	
15	0	0	0	0	28	24	497	307	1	34	
0	0	0	0	0	35	31	496	307	2	34	
1	0	0	0	0	31	28	496	307	1	34	
2	0	0	0	0	28	24	496	307	1	34	
3	0	0	0	0	28	24	496	307	1	34	
4	0	0	0	0	24	24	496	307	1	34	
5	0	0	0	0	28	24	495	307	1	34	
6	0	0	0	0	24	24	494	307	1	34	
7	0	0	0	0	28	24	495	307	1	34	
8	0	0	0	0	28	24	496	307	1	34	
9	0	0	0	0	35	31	496	307	2	34	
10	0	0	0	0	28	24	496	307	1	34	
11	0	0	0	0	31	28	496	307	1	34	
12	0	0	0	0	28	24	497	307	1	34	
13	0	0	0	0	28	24	499	307	1	34	
14	0	0	0	0	31	28	499	307	1	34	
15	0	0	0	0	28	24	499	307	1	34	
0	0	0	0	0	28	24	499	307	1	34	
1	0	0	0	0	28	24	502	307	1	34	
2	0	0	0	0	28	24	500	307	1	34	
3	0	0	0	0	35	31	499	307	1	34	
4	0	0	0	0	31	28	499	307	1	34	
5	0	0	0	0	31	28	499	307	1	34	
6	0	0	0	0	31	28	499	307	1	34	
7	0	0	0	0	28	24	497	307	1	34	
8	0	0	0	0	28	24	497	307	1	34	
9	0	0	0	0	28	24	497	307	1	34	
10	0	0	0	0	31	28	497	307	1	34	
11	0	0	0	0	28	24	497	307	1	34	
12	0	0	0	0	31	28	499	307	1	34	
13	0	0	0	0	28	24	499	307	1	34	
14	0	0	0	0	24	24	499	307	1	34	
15	0	0	0	0	28	24	504	307	1	34	
0	0	0	0	0	28	24	504	307	1	34	
1	0	0	0	0	31	28	504	307	1	34	
2	0	0	0	0	28	24	504	307	1	34	
3	0	0	0	0	28	24	504	307	1	34	
4	0	0	0	0	31	28	504	307	1	34	
5	0	0	0	0	31	28	504	307	1	34	
6	0	0	0	0	28	24	504	307	1	34	
7	0	0	0	0	28	24	504	307	1	34	
8	0	0	0	0	28	24	504	307	1	34	
9	0	0	0	0	25	24	504	307	1	34	
10	0	0	0	0	28	24	502	307	1	34	
11	0	0	0	0	31	28	499	307	1	34	
12	0	0	0	0	31	28	499	307	1	34	
13	0	0	0	0	28	24	499	307	1	34	
14	0	0	0	0	31	28	499	307	1	34	
15	0	0	0	0	31	28	499	307	1	34	
0	0	0	0	0	28	24	499	307	1	34	
1	0	0	0	0	28	24	499	307	1	34	
2	0	0	0	0	28	24	504	307	1	34	
3	0	0	0	0	28	24	504	307	1	34	
4	0	0	0	0	28	24	504	307	1	34	
5	0	0	0	0	28	24	504	307	1	34	
6	0	0	0	0	31	28	504	307	1	34	
7	0	0	0	0	28	24	504	307	1	34	
8	0	0	0	0	28	24	505	307	1	34	
9	0	0	0	0	31	28	505	307	1	34	
10	0	0	0	0	31	28	504	307	1	34	
11	0	0	0	0	28	24	504	307	1	34	
12	0	0	0	0	28	24	504	307	1	34	
13	0	0	0	0	31	28	504	307	1	34	
14	0	0	0	0	24	24	504	307	1	34	
15	0	0	0	0	28	24	504	307	1	34	
0	0	0	0	0	24	24	504	307	1	34	
1	0	0	0	0	35	31	504	307	2	34	
2	0	0	0	0	31	28	504	307	1	34	
3	0	0	0	0	24	24	504	307	1	34	
4	0	0	0	0	31	28	504	307	1	34	
5	0	0	0	0	28	24	504	307	1	34	
6	0	0	0	0	31	28	505	307	1	34	
7	0	0	0	0	31	24	508	307	2	34	
8	0	0	0	0	35	31	508	307	2	34	
9	0	0	0	0	28	24	510	307	1	34	
10	0	0	0	0	31	28	510	307	1	34	
11	0	0	0	0	35	31	510	307	2	34	
12	0	0	0	0	28	24	510	307	1	34	
13	0	0	0	0	28	24	510	307	1	34	
14	0	0	0	0	28	24	508	307	1	34	
15	0	0	0	0	28	24	508	307	1	34	
0	0	0	0	0	28	24	508	307	1	34	
1	0	0	0	0	28	24	505	307	1	34	
2	0	0	0	0	28	24	504	307	1	34	
3	0	0	0	0	19	28	504	307	1	34	
4	0	0	0	0	31	28	504	307	1	34	
5	0	0	0	0	28	24	504	307	1	34	
6	0	0	0	0	35	31	504	307	1	34	
7	0	0	0	0	28	24	504	307	1	34	
8	0	0	0	0	28	24	504	307	1	34	
9	0	0	0	0	28	24	504	307	1	34	
10	0	0	0	0	28	24	504	307	1	34	
11	0	0	0	0	28	24	505	307	1	34	
12	0	0	0	0	28	24	508	307	1	34	
13	0	0	0	0	35	31	508	307	2	34	
14	0	0	0	0	28	28	510	307	1	34	
15	0	0	0	0	28	24	510	307	1	34	
0	0	0	0	0	28	24	510	307	1	34	
1	0	0	0	0	31	28	510	307	1	34	
2	0	0	0	0	31	28	510	307	1	34	
3	0	0	0	0	35	31	510	307	2	34	
4	0	0	0	0	35	31	508	307	2	34	
5	0	0	0	0	31	28	508	307	1	34	
6	0	0	0	0	28	24	508	307	1	34	
7	0	0	0	0	28	24	505	307	1	34	
8	0	0	0	0	28	24	505	307	1	34	
9	0	0	0	0	35	31	504	307	2	34	
10	0	0	0	0	28	24	504	307	1	34	
11	0	0	0	0	31	28	504	307	1	34	
12	0	0	0	0	28	24	504	307	1	34	
13	0	0	0	0	28	24	505	307	1	34	
14	0	0	0	0	31	28	505	308	1	34	
15	0	0	0	0	28	24	508	310	1	34	
0	0	0	0	0	35	31	508	310	2	34	
1	0	0	0	0	28	24	508	308	1	34	
2	0	0	0	0	28	24	510	307	1	34	
3	0	0	0	0	28	24	510	307	1	34	
4	0	0	0	0	31	28	511	310	1	34	
5	0	0	0	0	28	24	511	310	1	34	
6	0	0	0	0	24	24	511	307	1	34	
7	0	0	0	0	28	24	510	307	1	34	
8	0	0	0	0	28	24	510	307	1	34	
9	0	0	0	0	28	24	510	307	1	34	
10	0	0	0	0	28	24	508	307	1	34	
11	0	0	0	0	31	28	508	307	1	34	
12	0	0	0	0	28	24	508	307	1	34	
13	0	0	0	0	28	24	508	307	1	34	
14	0	0	0	0	25	24	508	307	1	34	
15	0	0	0	0	31	28	508	307	1	34	
0	0	0	0	0	28	24	508	307	1	34	
1	0	0	0	0	24	24	508	307	1	34	
2	0	0	0	0	31	28	510	307	1	34	
3	0	0	0	0	28	24	510	307	1	34	
4	0	0	0	0	28	24	511	307	1	34	
5	0	0	0	0	28	24	511	308	1	34	
6	0	0	0	0	31	28	512	307	1	34	
7	0	0	0	0	28	24	512	307	1	34	
8	0	0	0	0	31	28	512	307	1	34	
9	0	0	0	0	35	31	512	307	2	34	
10	0	0	0	0	31	28	512	307	1	34	
11	0	0	0	0	35	31	511	308	2	34	
12	0	0	0	0	28	24	511	307	1	34	
13	0	0	0	0	28	24	510	308	1	34	
14	0	0	0	0	24	24	510	308	1	34	
15	0	0	0	0	31	28	508	307	1	34	
0	0	0	0	0	28	24	508	308	1	34	
1	0	0	0	0	31	28	508	310	1	34	
2	0	0	0	0	31	28	508	310	1	34	
3	0	0	0	0	28	24	508	310	1	34	
4	0	0	0	0	28	24	510	310	1	34	
5	0	0	0	0	28	24	510	310	1	34	
6	0	0	0	0	31	28	511	310	1	34	
7	0	0	0	0	28	24	511	310	1	34	
8	0	0	0	0	28	24	512	310	1	34	
9	0	0	0	0	28	24	512	310	1	34	
10	0	0	0	0	31	28	513	310	1	34	
11	0	0	0	0	28	24	513	310	1	34	
12	0	0	0	0	28	24	515	310	1	34	
13	0	0	0	0	31	28	515	310	1	34	
14	0	0	0	0	24	24	515	310	1	34	
15	0	0	0	0	28	24	513	310	1	34	
0	0	0	0	0	28	24	513	310	1	34	
1	0	0	0	0	28	25	512	310	1	34	
2	0	0	0	0	28	24	512	310	1	34	
3	0	0	0	0	24	24	512	310	1	34	
4	0	0	0	0	28	24	511	310	1	34	
5	0	0	0	0	28	24	511	310	1	34	
6	0	0	0	0	31	28	511	310	1	34	
7	0	0	0	0	28	24	512	307	1	34	
8	0	0	0	0	31	28	512	307	1	34	
9	0	0	0	0	25	24	512	307	1	34	
10	0	0	0	0	28	24	513	307	1	34	
11	0	0	0	0	24	24	513	308	2	34	
12	0	0	0	0	28	24	515	310	1	34	
13	0	0	0	0	24	24	515	310	1	34	
14	0	0	0	0	35	31	515	310	2	34	
15	0	0	0	0	28	24	515	310	1	34	
0	0	0	0	0	28	24	515	308	1	34	
1	0	0	0	0	31	28	515	308	1	34	
2	0	0	0	0	31	28	515	308	1	34	
3	0	0	0	0	24	24	515	307	1	34	
4	0	0	0	0	35	31	513	310	2	34	
5	0	0	0	0	28	24	513	310	1	34	
6	0	0	0	0	35	31	512	310	2	34	
7	0	0	0	0	31	28	512	310	1	34	
8	0	0	0	0	31	28	511	310	1	34	
9	0	0	0	0	28	24	511	310	1	34	
10	0	0	0	0	28	24	511	307	1	34	
11	0	0	0	0	28	24	511	307	1	34	
12	0	0	0	0	28	24	512	307	1	34	
13	0	0	0	0	24	24	512	307	1	34	
14	0	0	0	0	30	28	512	307	1	34	
15	0	0	0	0	31	28	513	307	1	34	
0	0	0	0	0	28	24	513	307	1	34	
1	0	0	0	0	31	28	515	307	1	34	
2	0	0	0	0	31	28	515	307	1	34	
3	0	0	0	0	31	28	515	307	1	34	
4	0	0	0	0	28	24	515	307	1	34	
5	0	0	0	0	28	24	515	307	1	34	
6	0	0	0	0	28	24	515	308	1	34	
