# OpenSignals Text File Format. Version 1
# {"98:D3:31:B2:BC:6F": {"sensor": ["RAW", "RAW", "RAW", "RAW", "RAW", "RAW"], "device name": "98:D3:31:B2:BC:6F", "column": ["nSeq", "I1", "I2", "I3", "I4", "A1", "A2", "A3", "A4", "A5", "A6"], "sync interval": 2, "time": "12:48:55.50", "comments": "", "device connection": "/dev/tty.bitalino-DevB", "channels": [1, 2, 3, 4, 5, 6], "keywords": "", "convertedValues": 0, "mode": 0, "digital IO": [0, 0, 0, 0, 1, 1, 1, 1], "firmware version": 771, "device": "bitalino", "position": 0, "sampling rate": 1000, "label": ["A1", "A2", "A3", "A4", "A5", "A6"], "resolution": [4, 1, 1, 1, 1, 10, 10, 10, 10, 6, 6], "date": "2020-2-28", "special": [{}, {}, {}, {}, {}, {}]}}
# EndOfHeader
1	0	0	0	0	28	24	574	312	1	34	
2	0	0	0	0	28	24	551	312	1	34	
3	0	0	0	0	28	24	543	312	1	34	
4	0	0	0	0	35	31	540	312	1	34	
5	0	0	0	0	28	24	550	312	1	34	
6	0	0	0	0	31	28	568	312	1	34	
7	0	0	0	0	28	24	588	312	1	34	
8	0	0	0	0	31	28	615	312	1	34	
9	0	0	0	0	28	24	639	312	1	34	
10	0	0	0	0	28	24	670	312	1	34	
11	0	0	0	0	28	24	691	312	1	34	
12	0	0	0	0	28	24	707	312	1	34	
13	0	0	0	0	28	24	716	310	1	34	
14	0	0	0	0	30	28	711	310	1	34	
15	0	0	0	0	31	28	704	310	1	34	
0	0	0	0	0	28	24	679	310	1	34	
1	0	0	0	0	31	28	652	310	1	34	
2	0	0	0	0	28	24	620	310	1	34	
3	0	0	0	0	28	24	585	310	1	34	
4	0	0	0	0	28	24	556	310	1	34	
5	0	0	0	0	28	24	527	310	1	34	
6	0	0	0	0	28	24	510	310	1	34	
7	0	0	0	0	28	24	499	310	1	34	
8	0	0	0	0	35	31	499	310	1	34	
9	0	0	0	0	31	28	508	310	1	34	
10	0	0	0	0	31	28	526	310	1	34	
11	0	0	0	0	31	28	551	310	1	34	
12	0	0	0	0	28	24	575	310	1	34	
13	0	0	0	0	31	28	608	310	1	34	
14	0	0	0	0	28	24	632	310	1	34	
15	0	0	0	0	28	24	654	310	1	34	
0	0	0	0	0	28	24	668	307	1	34	
1	0	0	0	0	31	28	671	307	1	34	
2	0	0	0	0	31	28	670	310	1	34	
3	0	0	0	0	28	24	655	310	1	34	
4	0	0	0	0	35	31	632	310	1	34	
5	0	0	0	0	31	28	601	310	1	34	
6	0	0	0	0	31	28	568	310	1	34	
7	0	0	0	0	28	24	532	308	1	34	
8	0	0	0	0	28	24	499	310	1	34	
9	0	0	0	0	24	24	472	310	1	34	
10	0	0	0	0	28	24	451	310	1	34	
11	0	0	0	0	28	24	441	310	1	34	
12	0	0	0	0	28	24	441	308	1	34	
13	0	0	0	0	31	28	451	308	1	34	
14	0	0	0	0	24	24	472	310	1	34	
15	0	0	0	0	28	24	496	310	1	34	
0	0	0	0	0	28	24	524	310	1	34	
1	0	0	0	0	31	28	556	310	1	34	
2	0	0	0	0	28	24	583	310	1	34	
3	0	0	0	0	28	24	609	308	1	34	
4	0	0	0	0	28	24	630	310	1	34	
5	0	0	0	0	28	24	639	310	1	34	
6	0	0	0	0	31	28	639	310	1	34	
7	0	0	0	0	28	24	632	310	1	34	
8	0	0	0	0	28	24	611	310	1	34	
9	0	0	0	0	31	28	583	310	1	34	
10	0	0	0	0	28	24	556	310	1	34	
11	0	0	0	0	24	24	524	310	1	34	
12	0	0	0	0	24	24	492	310	1	34	
13	0	0	0	0	28	24	465	312	1	34	
14	0	0	0	0	24	24	448	312	1	34	
15	0	0	0	0	28	24	440	310	1	34	
0	0	0	0	0	28	24	440	310	1	34	
1	0	0	0	0	31	28	449	312	1	34	
2	0	0	0	0	28	24	470	312	1	34	
3	0	0	0	0	24	24	496	312	1	34	
4	0	0	0	0	28	24	527	312	1	34	
5	0	0	0	0	28	24	560	312	1	34	
6	0	0	0	0	35	31	591	312	1	34	
7	0	0	0	0	28	24	615	312	1	34	
8	0	0	0	0	28	24	638	312	1	34	
9	0	0	0	0	28	24	647	312	1	34	
10	0	0	0	0	28	24	647	312	1	34	
11	0	0	0	0	28	24	639	312	1	34	
12	0	0	0	0	31	28	620	312	1	34	
13	0	0	0	0	31	28	595	312	1	34	
14	0	0	0	0	24	24	563	312	1	34	
15	0	0	0	0	28	24	531	312	1	34	
0	0	0	0	0	24	24	499	312	1	34	
1	0	0	0	0	31	28	472	312	1	34	
2	0	0	0	0	31	28	451	312	1	34	
3	0	0	0	0	31	28	441	312	1	34	
4	0	0	0	0	31	28	440	312	1	34	
5	0	0	0	0	28	24	449	312	1	34	
6	0	0	0	0	31	28	467	312	1	34	
7	0	0	0	0	28	24	494	312	1	34	
8	0	0	0	0	28	24	524	312	1	34	
9	0	0	0	0	35	31	556	312	1	34	
10	0	0	0	0	24	24	583	312	1	34	
11	0	0	0	0	35	31	609	312	1	34	
12	0	0	0	0	24	24	627	312	1	34	
13	0	0	0	0	31	28	633	312	1	34	
14	0	0	0	0	28	24	632	312	1	34	
15	0	0	0	0	28	24	620	312	1	34	
0	0	0	0	0	31	28	595	312	1	34	
1	0	0	0	0	28	24	568	312	1	34	
2	0	0	0	0	35	31	531	312	1	34	
3	0	0	0	0	28	22	496	312	1	34	
4	0	0	0	0	35	31	463	312	1	34	
5	0	0	0	0	28	24	435	312	1	34	
6	0	0	0	0	35	31	415	312	1	34	
7	0	0	0	0	28	24	408	312	1	34	
8	0	0	0	0	28	24	408	312	1	34	
9	0	0	0	0	28	24	422	312	1	34	
10	0	0	0	0	28	24	444	312	1	34	
11	0	0	0	0	28	24	472	312	1	34	
12	0	0	0	0	28	24	508	312	1	34	
13	0	0	0	0	28	24	543	312	1	34	
14	0	0	0	0	31	31	575	312	1	34	
15	0	0	0	0	28	24	608	312	1	34	
0	0	0	0	0	28	24	632	312	1	34	
1	0	0	0	0	24	24	639	312	1	34	
2	0	0	0	0	28	24	647	312	1	34	
3	0	0	0	0	28	24	639	312	1	34	
4	0	0	0	0	28	24	622	312	1	34	
5	0	0	0	0	28	24	595	312	1	34	
6	0	0	0	0	28	24	563	312	1	34	
7	0	0	0	0	28	24	531	312	1	34	
8	0	0	0	0	28	24	499	312	1	34	
9	0	0	0	0	24	24	472	312	1	34	
10	0	0	0	0	28	24	451	312	1	34	
11	0	0	0	0	35	31	441	312	1	34	
12	0	0	0	0	28	24	441	312	1	34	
13	0	0	0	0	31	28	454	312	1	34	
14	0	0	0	0	28	24	476	312	1	34	
15	0	0	0	0	28	24	504	312	1	34	
0	0	0	0	0	24	24	536	312	1	34	
1	0	0	0	0	28	24	572	312	1	34	
2	0	0	0	0	31	28	606	312	1	34	
3	0	0	0	0	24	24	633	312	1	34	
4	0	0	0	0	28	24	655	312	1	34	
5	0	0	0	0	31	28	668	312	1	34	
6	0	0	0	0	31	28	670	312	1	34	
7	0	0	0	0	35	31	659	312	1	34	
8	0	0	0	0	28	24	639	312	1	34	
9	0	0	0	0	35	31	614	312	1	34	
10	0	0	0	0	28	24	582	312	1	34	
11	0	0	0	0	31	28	543	312	1	34	
12	0	0	0	0	28	24	512	312	1	34	
13	0	0	0	0	31	28	484	312	1	34	
14	0	0	0	0	28	24	463	310	1	34	
15	0	0	0	0	28	24	454	310	1	34	
0	0	0	0	0	28	24	455	310	1	34	
1	0	0	0	0	24	24	463	310	1	34	
2	0	0	0	0	28	24	486	312	1	34	
3	0	0	0	0	28	24	513	310	1	34	
4	0	0	0	0	24	24	547	312	1	34	
5	0	0	0	0	28	24	583	312	1	34	
6	0	0	0	0	24	24	615	312	1	34	
7	0	0	0	0	28	24	647	312	1	34	
8	0	0	0	0	24	24	668	310	1	34	
9	0	0	0	0	25	24	679	310	1	34	
10	0	0	0	0	28	24	679	312	1	34	
11	0	0	0	0	35	31	668	312	1	34	
12	0	0	0	0	28	24	646	312	1	34	
13	0	0	0	0	31	28	615	312	1	34	
14	0	0	0	0	28	24	575	312	1	34	
15	0	0	0	0	31	28	540	312	1	34	
0	0	0	0	0	28	24	504	312	1	34	
1	0	0	0	0	31	28	472	312	1	34	
2	0	0	0	0	28	24	448	312	1	34	
3	0	0	0	0	31	28	435	312	1	34	
4	0	0	0	0	28	24	435	312	1	34	
5	0	0	0	0	28	24	448	312	1	34	
6	0	0	0	0	35	31	470	312	1	34	
7	0	0	0	0	28	24	499	312	1	34	
8	0	0	0	0	31	28	536	312	1	34	
9	0	0	0	0	28	24	572	312	1	34	
10	0	0	0	0	31	28	608	312	1	34	
11	0	0	0	0	28	24	639	312	1	34	
12	0	0	0	0	24	24	664	312	1	34	
13	0	0	0	0	35	31	679	312	1	34	
14	0	0	0	0	24	24	684	312	1	34	
15	0	0	0	0	31	28	675	312	1	34	
0	0	0	0	0	28	24	655	312	1	34	
1	0	0	0	0	28	24	628	312	1	34	
2	0	0	0	0	28	24	595	312	1	34	
3	0	0	0	0	28	24	560	312	1	34	
4	0	0	0	0	31	28	524	312	1	34	
5	0	0	0	0	28	24	494	312	1	34	
6	0	0	0	0	28	24	472	312	1	34	
7	0	0	0	0	24	24	455	312	1	34	
8	0	0	0	0	28	24	455	312	1	34	
9	0	0	0	0	25	24	463	312	1	34	
10	0	0	0	0	31	28	483	310	1	34	
11	0	0	0	0	35	31	511	312	1	34	
12	0	0	0	0	28	24	543	310	1	34	
13	0	0	0	0	24	24	579	310	1	34	
14	0	0	0	0	28	24	615	310	1	34	
15	0	0	0	0	28	24	639	310	1	34	
0	0	0	0	0	28	24	668	310	1	34	
1	0	0	0	0	28	24	679	310	1	34	
2	0	0	0	0	31	28	681	310	1	34	
3	0	0	0	0	35	31	671	310	1	34	
4	0	0	0	0	28	24	655	310	1	34	
5	0	0	0	0	28	24	627	310	1	34	
6	0	0	0	0	35	31	591	310	1	34	
7	0	0	0	0	31	24	559	310	1	34	
8	0	0	0	0	35	31	524	310	1	34	
9	0	0	0	0	31	28	496	312	1	34	
10	0	0	0	0	28	24	473	310	1	34	
11	0	0	0	0	31	28	463	310	1	34	
12	0	0	0	0	28	24	462	310	1	34	
13	0	0	0	0	28	24	472	310	1	34	
14	0	0	0	0	24	24	492	312	1	34	
15	0	0	0	0	28	24	519	312	1	34	
0	0	0	0	0	24	24	551	310	1	34	
1	0	0	0	0	31	28	588	310	1	34	
2	0	0	0	0	35	31	620	312	1	34	
3	0	0	0	0	28	24	647	312	1	34	
4	0	0	0	0	28	24	670	312	1	34	
5	0	0	0	0	28	24	679	312	1	34	
6	0	0	0	0	31	28	679	312	1	34	
7	0	0	0	0	28	24	671	312	1	34	
8	0	0	0	0	31	28	649	312	1	34	
9	0	0	0	0	31	28	622	312	1	34	
10	0	0	0	0	31	28	588	312	1	34	
11	0	0	0	0	24	24	551	312	1	34	
12	0	0	0	0	28	24	515	312	1	34	
13	0	0	0	0	31	28	487	312	1	34	
14	0	0	0	0	31	28	463	312	1	34	
15	0	0	0	0	28	24	451	312	1	34	
0	0	0	0	0	28	24	451	312	1	34	
1	0	0	0	0	31	28	460	312	1	34	
2	0	0	0	0	28	24	480	312	1	34	
3	0	0	0	0	28	24	505	312	1	34	
4	0	0	0	0	28	24	537	312	1	34	
5	0	0	0	0	28	24	572	312	1	34	
6	0	0	0	0	35	31	604	312	1	34	
7	0	0	0	0	28	24	632	312	1	34	
8	0	0	0	0	28	24	647	312	1	34	
9	0	0	0	0	28	24	659	312	1	34	
10	0	0	0	0	24	24	659	312	1	34	
11	0	0	0	0	31	28	647	312	1	34	
12	0	0	0	0	28	24	627	312	1	34	
13	0	0	0	0	31	28	600	312	1	34	
14	0	0	0	0	24	24	568	312	1	34	
15	0	0	0	0	31	28	527	312	1	34	
0	0	0	0	0	28	24	496	312	1	34	
1	0	0	0	0	35	31	463	312	1	34	
2	0	0	0	0	31	28	444	312	1	34	
3	0	0	0	0	31	28	432	312	1	34	
4	0	0	0	0	31	28	432	312	1	34	
5	0	0	0	0	28	24	441	312	1	34	
6	0	0	0	0	35	31	462	312	1	34	
7	0	0	0	0	28	24	487	312	1	34	
8	0	0	0	0	31	28	521	312	1	34	
9	0	0	0	0	28	24	556	312	1	34	
10	0	0	0	0	31	28	590	312	1	34	
11	0	0	0	0	24	24	615	312	1	34	
12	0	0	0	0	28	24	639	312	1	34	
13	0	0	0	0	28	24	647	312	1	34	
14	0	0	0	0	28	24	647	312	1	34	
15	0	0	0	0	28	24	638	312	1	34	
0	0	0	0	0	31	28	615	312	1	34	
1	0	0	0	0	28	24	585	312	1	34	
2	0	0	0	0	28	24	551	312	1	34	
3	0	0	0	0	19	28	513	312	1	34	
4	0	0	0	0	28	24	480	312	1	34	
5	0	0	0	0	28	24	449	312	1	34	
6	0	0	0	0	35	31	428	312	1	34	
7	0	0	0	0	28	24	415	312	1	34	
8	0	0	0	0	28	24	415	312	1	34	
9	0	0	0	0	28	24	423	312	1	34	
10	0	0	0	0	24	24	448	312	1	34	
11	0	0	0	0	28	24	476	312	1	34	
12	0	0	0	0	35	31	508	312	1	34	
13	0	0	0	0	28	24	543	312	1	34	
14	0	0	0	0	24	24	575	312	1	34	
15	0	0	0	0	28	24	608	312	1	34	
0	0	0	0	0	28	24	627	312	1	34	
1	0	0	0	0	31	28	639	310	1	34	
2	0	0	0	0	31	28	638	310	1	34	
3	0	0	0	0	28	24	625	310	1	34	
4	0	0	0	0	24	24	604	310	1	34	
5	0	0	0	0	28	24	572	310	1	34	
6	0	0	0	0	31	28	536	307	1	34	
7	0	0	0	0	28	24	496	307	1	34	
8	0	0	0	0	28	24	460	307	1	34	
9	0	0	0	0	25	24	428	307	1	34	
10	0	0	0	0	31	28	403	307	1	34	
11	0	0	0	0	35	31	391	307	1	34	
12	0	0	0	0	28	24	390	307	1	34	
13	0	0	0	0	31	28	399	307	1	34	
14	0	0	0	0	24	24	419	307	1	34	
15	0	0	0	0	31	28	448	307	1	34	
0	0	0	0	0	35	31	481	307	1	34	
1	0	0	0	0	28	24	519	307	1	34	
2	0	0	0	0	28	24	551	307	1	34	
3	0	0	0	0	28	24	579	307	1	34	
4	0	0	0	0	31	28	600	307	1	34	
5	0	0	0	0	31	28	608	305	1	34	
6	0	0	0	0	31	28	608	307	1	34	
7	0	0	0	0	28	24	593	307	1	34	
8	0	0	0	0	31	28	569	307	1	34	
9	0	0	0	0	28	24	540	307	1	34	
10	0	0	0	0	28	24	504	307	1	34	
11	0	0	0	0	28	22	463	307	1	34	
12	0	0	0	0	31	28	428	307	1	34	
13	0	0	0	0	28	24	396	307	1	34	
14	0	0	0	0	30	28	374	307	1	34	
15	0	0	0	0	28	24	359	310	1	34	
0	0	0	0	0	28	24	359	310	1	34	
1	0	0	0	0	24	24	369	310	1	34	
2	0	0	0	0	31	28	391	310	1	34	
3	0	0	0	0	31	28	419	310	1	34	
4	0	0	0	0	31	28	451	312	1	34	
5	0	0	0	0	31	28	487	310	1	34	
6	0	0	0	0	28	24	524	310	1	34	
7	0	0	0	0	28	24	556	312	1	34	
8	0	0	0	0	28	24	575	312	1	34	
9	0	0	0	0	28	24	591	312	1	34	
10	0	0	0	0	24	24	595	310	1	34	
11	0	0	0	0	35	31	585	312	1	34	
12	0	0	0	0	28	24	568	312	1	34	
13	0	0	0	0	28	24	540	312	1	34	
14	0	0	0	0	28	24	504	312	1	34	
15	0	0	0	0	28	24	467	312	1	34	
0	0	0	0	0	31	28	433	312	1	34	
1	0	0	0	0	28	24	403	312	1	34	
2	0	0	0	0	28	24	384	312	1	34	
3	0	0	0	0	31	28	371	312	1	34	
4	0	0	0	0	28	24	371	312	1	34	
5	0	0	0	0	28	24	384	312	1	34	
6	0	0	0	0	35	31	404	312	1	34	
7	0	0	0	0	31	28	433	312	1	34	
8	0	0	0	0	31	28	467	312	1	34	
9	0	0	0	0	31	28	504	312	1	34	
10	0	0	0	0	31	28	536	312	1	34	
11	0	0	0	0	35	31	561	312	1	34	
12	0	0	0	0	35	31	579	312	1	34	
13	0	0	0	0	28	24	588	312	1	34	
14	0	0	0	0	24	24	583	312	1	34	
15	0	0	0	0	28	24	572	312	1	34	
0	0	0	0	0	28	24	547	312	1	34	
1	0	0	0	0	35	31	515	310	1	34	
2	0	0	0	0	31	28	480	312	1	34	
3	0	0	0	0	28	24	444	310	1	34	
4	0	0	0	0	35	31	408	310	1	34	
5	0	0	0	0	35	31	377	310	1	34	
6	0	0	0	0	28	24	355	312	1	34	
7	0	0	0	0	24	24	344	312	1	34	
8	0	0	0	0	28	24	344	312	1	34	
9	0	0	0	0	24	24	353	312	1	34	
10	0	0	0	0	28	24	376	312	1	34	
11	0	0	0	0	35	31	401	312	1	34	
12	0	0	0	0	31	28	435	312	1	34	
13	0	0	0	0	28	24	472	312	1	34	
14	0	0	0	0	28	24	504	312	1	34	
15	0	0	0	0	28	24	536	312	1	34	
0	0	0	0	0	28	24	556	312	1	34	
1	0	0	0	0	28	24	568	312	1	34	
2	0	0	0	0	24	24	568	312	1	34	
3	0	0	0	0	28	24	560	312	1	34	
4	0	0	0	0	24	24	540	312	1	34	
5	0	0	0	0	28	24	511	312	1	34	
6	0	0	0	0	28	24	478	312	1	34	
7	0	0	0	0	28	24	441	312	1	34	
8	0	0	0	0	28	24	408	312	1	34	
9	0	0	0	0	28	24	384	312	1	34	
10	0	0	0	0	28	24	359	312	1	34	
11	0	0	0	0	28	24	350	312	1	34	
12	0	0	0	0	28	24	352	312	1	34	
13	0	0	0	0	35	31	361	312	1	34	
14	0	0	0	0	28	24	384	312	1	34	
15	0	0	0	0	28	24	415	312	1	34	
0	0	0	0	0	28	24	455	312	1	34	
1	0	0	0	0	35	31	496	312	1	34	
2	0	0	0	0	28	24	534	312	1	34	
3	0	0	0	0	28	24	568	312	1	34	
4	0	0	0	0	28	24	591	312	1	34	
5	0	0	0	0	28	24	608	312	1	34	
6	0	0	0	0	31	28	611	312	1	34	
7	0	0	0	0	28	24	604	312	1	34	
8	0	0	0	0	28	24	588	312	1	34	
9	0	0	0	0	35	31	560	312	1	34	
10	0	0	0	0	28	24	527	312	1	34	
11	0	0	0	0	31	28	494	312	1	34	
12	0	0	0	0	31	28	462	312	1	34	
13	0	0	0	0	28	24	433	312	1	34	
14	0	0	0	0	28	24	414	312	1	34	
15	0	0	0	0	24	24	403	312	1	34	
0	0	0	0	0	28	24	401	312	1	34	
1	0	0	0	0	35	31	412	312	1	34	
2	0	0	0	0	28	24	432	312	1	34	
3	0	0	0	0	28	24	455	312	1	34	
4	0	0	0	0	31	28	487	312	1	34	
5	0	0	0	0	31	28	519	312	1	34	
6	0	0	0	0	24	24	553	312	1	34	
7	0	0	0	0	31	28	582	312	1	34	
8	0	0	0	0	28	24	601	312	1	34	
9	0	0	0	0	24	24	614	310	1	34	
10	0	0	0	0	28	24	615	310	1	34	
11	0	0	0	0	31	28	606	310	1	34	
12	0	0	0	0	35	31	585	310	1	34	
13	0	0	0	0	28	24	560	310	1	34	
14	0	0	0	0	28	28	527	310	1	34	
15	0	0	0	0	28	22	494	310	1	34	
0	0	0	0	0	25	28	462	307	1	34	
1	0	0	0	0	35	31	433	307	1	34	
2	0	0	0	0	28	24	415	307	1	34	
3	0	0	0	0	31	28	403	307	1	34	
4	0	0	0	0	28	24	403	307	1	34	
5	0	0	0	0	28	24	415	310	1	34	
6	0	0	0	0	28	24	435	310	1	34	
7	0	0	0	0	31	28	463	310	1	34	
8	0	0	0	0	28	24	496	310	1	34	
9	0	0	0	0	28	24	531	310	1	34	
10	0	0	0	0	31	28	568	310	1	34	
11	0	0	0	0	24	24	595	310	1	34	
12	0	0	0	0	31	28	615	312	1	34	
13	0	0	0	0	28	24	632	310	1	34	
14	0	0	0	0	28	24	632	310	1	34	
15	0	0	0	0	28	24	624	310	1	34	
0	0	0	0	0	31	28	604	310	1	34	
1	0	0	0	0	28	24	575	310	1	34	
2	0	0	0	0	28	24	542	310	1	34	
3	0	0	0	0	24	24	504	310	1	34	
4	0	0	0	0	24	24	472	310	1	34	
5	0	0	0	0	28	24	440	310	1	34	
6	0	0	0	0	24	24	415	310	1	34	
7	0	0	0	0	31	28	403	310	1	34	
8	0	0	0	0	28	24	399	310	1	34	
9	0	0	0	0	28	24	409	310	1	34	
10	0	0	0	0	31	28	430	310	1	34	
11	0	0	0	0	28	24	455	310	1	34	
12	0	0	0	0	28	24	489	310	1	34	
13	0	0	0	0	31	28	526	310	1	34	
14	0	0	0	0	24	24	560	310	1	34	
15	0	0	0	0	28	24	591	312	1	34	
0	0	0	0	0	31	28	615	312	1	34	
1	0	0	0	0	35	31	632	312	1	34	
2	0	0	0	0	28	24	638	312	1	34	
3	0	0	0	0	31	28	632	312	1	34	
4	0	0	0	0	28	24	615	312	1	34	
5	0	0	0	0	28	24	591	312	1	34	
6	0	0	0	0	31	28	560	312	1	34	
7	0	0	0	0	28	24	526	312	1	34	
8	0	0	0	0	28	24	492	312	1	34	
9	0	0	0	0	28	24	460	312	1	34	
10	0	0	0	0	24	24	435	312	1	34	
11	0	0	0	0	35	31	419	312	1	34	
12	0	0	0	0	24	24	414	312	1	34	
13	0	0	0	0	28	24	415	312	1	34	
14	0	0	0	0	28	24	432	312	1	34	
15	0	0	0	0	28	24	455	312	1	34	
0	0	0	0	0	31	28	483	312	1	34	
1	0	0	0	0	28	24	513	312	1	34	
2	0	0	0	0	31	28	543	312	1	34	
3	0	0	0	0	28	24	574	312	1	34	
4	0	0	0	0	31	28	595	312	1	34	
5	0	0	0	0	28	24	608	312	1	34	
6	0	0	0	0	31	28	611	312	1	34	
7	0	0	0	0	31	28	608	312	1	34	
8	0	0	0	0	28	24	591	312	1	34	
9	0	0	0	0	31	28	568	312	1	34	
10	0	0	0	0	28	24	540	312	1	34	
11	0	0	0	0	28	24	508	312	1	34	
12	0	0	0	0	28	24	476	312	1	34	
13	0	0	0	0	28	24	448	312	1	34	
14	0	0	0	0	22	24	428	312	1	34	
15	0	0	0	0	28	24	415	312	1	34	
0	0	0	0	0	31	28	412	312	1	34	
1	0	0	0	0	31	28	417	312	1	34	
2	0	0	0	0	31	28	433	312	1	34	
3	0	0	0	0	28	24	457	312	1	34	
4	0	0	0	0	28	24	487	312	1	34	
5	0	0	0	0	28	24	519	312	1	34	
6	0	0	0	0	28	24	551	312	1	34	
7	0	0	0	0	24	24	575	312	1	34	
8	0	0	0	0	28	24	600	312	1	34	
9	0	0	0	0	24	24	611	312	1	34	
10	0	0	0	0	28	24	615	312	1	34	
11	0	0	0	0	24	24	608	312	1	34	
12	0	0	0	0	28	24	590	312	1	34	
13	0	0	0	0	35	31	563	312	1	34	
14	0	0	0	0	28	24	534	312	1	34	
15	0	0	0	0	28	24	499	312	1	34	
0	0	0	0	0	28	24	467	312	1	34	
1	0	0	0	0	31	28	440	312	1	34	
2	0	0	0	0	28	24	415	312	1	34	
3	0	0	0	0	28	24	403	312	1	34	
4	0	0	0	0	31	28	399	312	1	34	
5	0	0	0	0	28	24	408	312	1	34	
6	0	0	0	0	28	24	425	312	1	34	
7	0	0	0	0	31	28	451	310	1	34	
8	0	0	0	0	28	24	481	310	1	34	
9	0	0	0	0	31	28	515	310	1	34	
10	0	0	0	0	31	28	547	310	1	34	
11	0	0	0	0	24	24	575	310	1	34	
12	0	0	0	0	28	24	595	310	1	34	
13	0	0	0	0	24	24	608	310	1	34	
14	0	0	0	0	30	28	608	310	1	34	
15	0	0	0	0	28	24	600	308	1	34	
0	0	0	0	0	28	24	575	308	1	34	
1	0	0	0	0	35	31	551	307	1	34	
2	0	0	0	0	28	24	519	307	1	34	
3	0	0	0	0	31	24	483	308	1	34	
4	0	0	0	0	28	24	449	307	1	34	
5	0	0	0	0	28	24	423	307	1	34	
6	0	0	0	0	31	28	401	307	1	34	
7	0	0	0	0	35	31	391	307	1	34	
8	0	0	0	0	28	24	391	307	1	34	
9	0	0	0	0	31	28	399	307	1	34	
10	0	0	0	0	28	24	419	307	1	34	
11	0	0	0	0	35	31	448	307	1	34	
12	0	0	0	0	28	24	480	307	1	34	
13	0	0	0	0	28	24	511	307	1	34	
14	0	0	0	0	28	24	543	307	1	34	
15	0	0	0	0	28	24	572	307	1	34	
0	0	0	0	0	31	28	591	307	1	34	
1	0	0	0	0	24	24	601	308	1	34	
2	0	0	0	0	24	24	601	310	1	34	
3	0	0	0	0	28	24	591	310	1	34	
4	0	0	0	0	24	24	572	310	1	34	
5	0	0	0	0	24	24	543	310	1	34	
6	0	0	0	0	31	28	508	312	1	34	
7	0	0	0	0	28	24	472	312	1	34	
8	0	0	0	0	31	28	440	310	1	34	
9	0	0	0	0	28	24	409	310	1	34	
10	0	0	0	0	28	24	387	312	1	34	
11	0	0	0	0	24	24	377	312	1	34	
12	0	0	0	0	28	24	376	312	1	34	
13	0	0	0	0	31	28	387	312	1	34	
14	0	0	0	0	24	24	409	312	1	34	
15	0	0	0	0	28	24	440	312	1	34	
0	0	0	0	0	28	24	476	312	1	34	
1	0	0	0	0	24	24	513	312	1	34	
2	0	0	0	0	28	24	550	312	1	34	
3	0	0	0	0	28	24	580	312	1	34	
4	0	0	0	0	28	24	604	312	1	34	
5	0	0	0	0	28	24	615	312	1	34	
6	0	0	0	0	28	24	615	312	1	34	
7	0	0	0	0	28	24	608	312	1	34	
8	0	0	0	0	35	31	583	312	1	34	
9	0	0	0	0	28	24	551	312	1	34	
10	0	0	0	0	35	31	515	312	1	34	
11	0	0	0	0	35	31	480	312	1	34	
12	0	0	0	0	31	28	440	312	1	34	
13	0	0	0	0	28	24	408	312	1	34	
14	0	0	0	0	28	24	384	312	1	34	
15	0	0	0	0	24	24	371	312	1	34	
0	0	0	0	0	28	24	369	312	1	34	
1	0	0	0	0	24	24	380	312	1	34	
2	0	0	0	0	28	24	399	312	1	34	
3	0	0	0	0	35	31	428	312	1	34	
4	0	0	0	0	28	24	463	312	1	34	
5	0	0	0	0	28	24	499	312	1	34	
6	0	0	0	0	24	24	536	312	1	34	
7	0	0	0	0	28	24	568	312	1	34	
8	0	0	0	0	28	24	591	312	1	34	
9	0	0	0	0	31	28	604	312	1	34	
10	0	0	0	0	28	24	608	312	1	34	
11	0	0	0	0	31	28	600	312	1	34	
12	0	0	0	0	28	24	579	312	1	34	
13	0	0	0	0	28	24	551	312	1	34	
14	0	0	0	0	24	24	519	312	1	34	
15	0	0	0	0	28	24	487	312	1	34	
0	0	0	0	0	35	31	454	312	1	34	
1	0	0	0	0	31	28	423	312	1	34	
2	0	0	0	0	28	24	403	312	1	34	
3	0	0	0	0	28	24	391	312	1	34	
4	0	0	0	0	31	28	391	312	1	34	
5	0	0	0	0	31	28	399	312	1	34	
6	0	0	0	0	31	28	419	312	1	34	
7	0	0	0	0	28	24	448	312	1	34	
8	0	0	0	0	28	24	478	312	1	34	
9	0	0	0	0	24	24	510	312	1	34	
10	0	0	0	0	28	24	542	312	1	34	
11	0	0	0	0	35	31	568	312	1	34	
12	0	0	0	0	28	24	590	312	1	34	
13	0	0	0	0	28	24	600	312	1	34	
14	0	0	0	0	28	24	600	312	1	34	
15	0	0	0	0	28	24	591	312	1	34	
0	0	0	0	0	31	28	572	312	1	34	
1	0	0	0	0	24	24	543	312	1	34	
2	0	0	0	0	28	24	510	312	1	34	
3	0	0	0	0	28	24	476	312	1	34	
4	0	0	0	0	35	31	440	312	1	34	
5	0	0	0	0	28	24	414	312	1	34	
6	0	0	0	0	35	31	391	312	1	34	
7	0	0	0	0	31	28	384	312	1	34	
8	0	0	0	0	28	24	384	312	1	34	
9	0	0	0	0	31	28	391	312	1	34	
10	0	0	0	0	28	24	412	312	1	34	
11	0	0	0	0	24	24	440	312	1	34	
12	0	0	0	0	31	28	472	312	1	34	
13	0	0	0	0	28	24	508	312	1	34	
14	0	0	0	0	24	24	542	312	1	34	
15	0	0	0	0	28	24	572	312	1	34	
0	0	0	0	0	35	31	591	312	1	34	
1	0	0	0	0	24	24	608	312	1	34	
2	0	0	0	0	28	24	608	312	1	34	
3	0	0	0	0	28	24	600	312	1	34	
4	0	0	0	0	28	24	575	312	1	34	
5	0	0	0	0	28	24	551	312	1	34	
6	0	0	0	0	28	24	519	312	1	34	
7	0	0	0	0	28	22	483	312	1	34	
8	0	0	0	0	28	24	448	312	1	34	
9	0	0	0	0	28	24	419	312	1	34	
10	0	0	0	0	28	24	398	312	1	34	
11	0	0	0	0	31	28	385	312	1	34	
12	0	0	0	0	28	24	384	312	1	34	
13	0	0	0	0	31	28	396	312	1	34	
14	0	0	0	0	28	24	415	312	1	34	
15	0	0	0	0	28	24	444	312	1	34	
0	0	0	0	0	31	28	480	312	1	34	
1	0	0	0	0	28	24	515	312	1	34	
2	0	0	0	0	35	31	551	312	1	34	
3	0	0	0	0	28	24	583	312	1	34	
4	0	0	0	0	28	24	608	312	1	34	
5	0	0	0	0	28	24	620	312	1	34	
6	0	0	0	0	31	28	624	312	1	34	
7	0	0	0	0	28	24	615	312	1	34	
8	0	0	0	0	28	24	595	310	1	34	
9	0	0	0	0	24	24	568	310	1	34	
10	0	0	0	0	28	24	536	310	1	34	
11	0	0	0	0	24	24	497	310	1	34	
12	0	0	0	0	28	24	463	310	1	34	
13	0	0	0	0	24	24	432	310	1	34	
14	0	0	0	0	24	24	412	310	1	34	
15	0	0	0	0	35	31	398	310	1	34	
0	0	0	0	0	24	24	396	310	1	34	
1	0	0	0	0	35	31	406	310	1	34	
2	0	0	0	0	24	24	423	310	1	34	
3	0	0	0	0	31	28	451	310	1	34	
4	0	0	0	0	28	24	487	310	1	34	
5	0	0	0	0	31	28	524	310	1	34	
6	0	0	0	0	28	24	560	312	1	34	
7	0	0	0	0	31	28	590	312	1	34	
8	0	0	0	0	28	24	615	312	1	34	
9	0	0	0	0	25	24	632	312	1	34	
10	0	0	0	0	24	24	636	312	1	34	
11	0	0	0	0	28	24	627	312	1	34	
12	0	0	0	0	24	24	611	312	1	34	
13	0	0	0	0	28	24	583	312	1	34	
14	0	0	0	0	28	24	551	312	1	34	
15	0	0	0	0	28	24	518	312	1	34	
0	0	0	0	0	31	28	481	312	1	34	
1	0	0	0	0	31	28	451	312	1	34	
2	0	0	0	0	31	28	428	312	1	34	
3	0	0	0	0	28	28	414	312	1	34	
4	0	0	0	0	28	24	408	312	1	34	
5	0	0	0	0	28	24	415	312	1	34	
6	0	0	0	0	35	31	435	312	1	34	
7	0	0	0	0	31	28	463	312	1	34	
8	0	0	0	0	31	28	496	312	1	34	
9	0	0	0	0	28	24	529	310	1	34	
10	0	0	0	0	35	31	566	312	1	34	
11	0	0	0	0	31	28	595	312	1	34	
12	0	0	0	0	24	24	620	310	1	34	
13	0	0	0	0	28	24	636	312	1	34	
14	0	0	0	0	24	24	639	310	1	34	
15	0	0	0	0	28	24	632	310	1	34	
0	0	0	0	0	31	28	615	310	1	34	
1	0	0	0	0	31	28	588	310	1	34	
2	0	0	0	0	31	28	558	312	1	34	
3	0	0	0	0	35	31	524	312	1	34	
4	0	0	0	0	31	28	487	312	1	34	
5	0	0	0	0	24	24	460	312	1	34	
6	0	0	0	0	35	31	440	310	1	34	
7	0	0	0	0	28	24	428	312	1	34	
8	0	0	0	0	31	28	423	310	1	34	
9	0	0	0	0	28	24	433	310	1	34	
10	0	0	0	0	31	28	454	310	1	34	
11	0	0	0	0	28	24	480	310	1	34	
12	0	0	0	0	28	24	511	310	1	34	
13	0	0	0	0	28	24	543	310	1	34	
14	0	0	0	0	35	31	575	310	1	34	
15	0	0	0	0	28	24	608	310	1	34	
0	0	0	0	0	31	28	625	310	1	34	
1	0	0	0	0	35	31	638	310	1	34	
2	0	0	0	0	28	24	639	312	1	34	
3	0	0	0	0	28	24	632	310	1	34	
4	0	0	0	0	28	24	609	312	1	34	
5	0	0	0	0	28	24	583	310	1	34	
6	0	0	0	0	31	28	547	310	1	34	
7	0	0	0	0	28	24	512	312	1	34	
8	0	0	0	0	31	28	480	312	1	34	
9	0	0	0	0	31	28	448	312	1	34	
10	0	0	0	0	28	24	425	312	1	34	
11	0	0	0	0	28	24	415	310	1	34	
12	0	0	0	0	28	24	414	310	1	34	
13	0	0	0	0	28	24	423	310	1	34	
14	0	0	0	0	24	24	448	310	1	34	
15	0	0	0	0	28	24	478	312	1	34	
0	0	0	0	0	28	24	513	312	1	34	
1	0	0	0	0	35	31	551	312	1	34	
2	0	0	0	0	28	24	588	312	1	34	
3	0	0	0	0	28	24	620	312	1	34	
4	0	0	0	0	31	28	639	312	1	34	
5	0	0	0	0	28	24	655	312	1	34	
6	0	0	0	0	28	24	655	312	1	34	
7	0	0	0	0	31	28	647	312	1	34	
8	0	0	0	0	24	24	625	312	1	34	
9	0	0	0	0	30	28	595	312	1	34	
10	0	0	0	0	28	24	560	312	1	34	
11	0	0	0	0	35	28	519	312	1	34	
12	0	0	0	0	31	28	483	312	1	34	
13	0	0	0	0	28	24	449	312	1	34	
14	0	0	0	0	28	24	425	312	1	34	
15	0	0	0	0	31	28	412	312	1	34	
0	0	0	0	0	28	24	409	312	1	34	
1	0	0	0	0	24	24	419	312	1	34	
2	0	0	0	0	28	24	440	312	1	34	
3	0	0	0	0	31	31	467	312	1	34	
4	0	0	0	0	28	24	504	312	1	34	
5	0	0	0	0	28	24	540	312	1	34	
6	0	0	0	0	24	24	575	312	1	34	
7	0	0	0	0	28	24	606	312	1	34	
8	0	0	0	0	35	31	627	310	1	34	
9	0	0	0	0	28	24	639	310	1	34	
10	0	0	0	0	24	24	639	310	1	34	
11	0	0	0	0	28	24	636	310	1	34	
12	0	0	0	0	24	24	615	310	1	34	
13	0	0	0	0	28	24	588	310	1	34	
14	0	0	0	0	30	28	556	310	1	34	
15	0	0	0	0	28	24	519	310	1	34	
0	0	0	0	0	28	24	487	310	1	34	
1	0	0	0	0	31	28	455	312	1	34	
2	0	0	0	0	31	28	440	310	1	34	
3	0	0	0	0	28	24	428	310	1	34	
4	0	0	0	0	31	28	428	310	1	34	
5	0	0	0	0	24	24	440	312	1	34	
6	0	0	0	0	28	24	463	312	1	34	
7	0	0	0	0	24	24	494	312	1	34	
8	0	0	0	0	28	24	527	312	1	34	
9	0	0	0	0	35	31	563	310	1	34	
10	0	0	0	0	28	24	600	310	1	34	
11	0	0	0	0	24	24	627	310	1	34	
12	0	0	0	0	24	24	647	312	1	34	
13	0	0	0	0	31	28	655	312	1	34	
14	0	0	0	0	28	24	655	312	1	34	
15	0	0	0	0	31	28	646	312	1	34	
0	0	0	0	0	31	28	624	312	1	34	
1	0	0	0	0	31	28	593	310	1	34	
2	0	0	0	0	28	24	560	310	1	34	
3	0	0	0	0	28	24	521	310	1	34	
4	0	0	0	0	28	24	487	310	1	34	
5	0	0	0	0	28	24	455	310	1	34	
6	0	0	0	0	35	31	433	312	1	34	
7	0	0	0	0	28	24	422	310	1	34	
8	0	0	0	0	31	28	419	312	1	34	
9	0	0	0	0	28	24	430	312	1	34	
10	0	0	0	0	24	24	448	312	1	34	
11	0	0	0	0	28	24	476	312	1	34	
12	0	0	0	0	31	28	508	312	1	34	
13	0	0	0	0	28	24	543	312	1	34	
14	0	0	0	0	24	24	575	312	1	34	
15	0	0	0	0	31	28	608	312	1	34	
0	0	0	0	0	28	24	632	312	1	34	
1	0	0	0	0	35	31	639	312	1	34	
2	0	0	0	0	28	24	647	312	1	34	
3	0	0	0	0	28	24	639	312	1	34	
4	0	0	0	0	28	24	624	312	1	34	
5	0	0	0	0	31	28	595	312	1	34	
6	0	0	0	0	28	24	561	312	1	34	
7	0	0	0	0	28	24	527	312	1	34	
8	0	0	0	0	28	24	492	312	1	34	
9	0	0	0	0	28	24	462	312	1	34	
10	0	0	0	0	31	28	440	312	1	34	
11	0	0	0	0	24	24	423	312	1	34	
12	0	0	0	0	28	24	422	312	1	34	
13	0	0	0	0	28	24	430	312	1	34	
14	0	0	0	0	24	24	448	312	1	34	
15	0	0	0	0	28	24	473	312	1	34	
0	0	0	0	0	31	28	505	312	1	34	
1	0	0	0	0	28	24	540	312	1	34	
2	0	0	0	0	28	24	572	312	1	34	
3	0	0	0	0	19	28	600	312	1	34	
4	0	0	0	0	28	24	624	312	1	34	
5	0	0	0	0	28	24	636	312	1	34	
6	0	0	0	0	35	31	636	312	1	34	
7	0	0	0	0	31	28	627	312	1	34	
8	0	0	0	0	31	28	608	312	1	34	
9	0	0	0	0	31	28	582	312	1	34	
10	0	0	0	0	28	24	547	312	1	34	
11	0	0	0	0	28	24	512	312	1	34	
12	0	0	0	0	28	24	480	312	1	34	
13	0	0	0	0	31	28	448	312	1	34	
14	0	0	0	0	24	24	425	312	1	34	
15	0	0	0	0	28	24	414	312	1	34	
0	0	0	0	0	28	24	412	312	1	34	
1	0	0	0	0	35	31	419	312	1	34	
2	0	0	0	0	31	28	440	312	1	34	
3	0	0	0	0	28	24	465	312	1	34	
4	0	0	0	0	28	24	499	312	1	34	
5	0	0	0	0	28	24	536	312	1	34	
6	0	0	0	0	35	31	568	312	1	34	
7	0	0	0	0	28	24	595	312	1	34	
8	0	0	0	0	28	24	619	312	1	34	
9	0	0	0	0	28	24	632	312	1	34	
10	0	0	0	0	28	24	632	312	1	34	
11	0	0	0	0	31	28	624	312	1	34	
12	0	0	0	0	28	24	604	312	1	34	
13	0	0	0	0	31	28	575	312	1	34	
14	0	0	0	0	31	28	542	312	1	34	
15	0	0	0	0	28	22	505	312	1	34	
0	0	0	0	0	28	24	472	312	1	34	
1	0	0	0	0	28	24	444	312	1	34	
2	0	0	0	0	28	24	422	312	1	34	
3	0	0	0	0	28	24	409	312	1	34	
4	0	0	0	0	35	31	408	312	1	34	
5	0	0	0	0	28	24	419	312	1	34	
6	0	0	0	0	31	28	440	312	1	34	
7	0	0	0	0	31	28	467	312	1	34	
8	0	0	0	0	28	24	499	312	1	34	
9	0	0	0	0	28	24	536	312	1	34	
10	0	0	0	0	28	24	568	312	1	34	
11	0	0	0	0	28	24	595	312	1	34	
12	0	0	0	0	28	24	615	312	1	34	
13	0	0	0	0	35	31	625	312	1	34	
14	0	0	0	0	24	24	627	312	1	34	
15	0	0	0	0	31	28	615	310	1	34	
0	0	0	0	0	28	24	595	310	1	34	
1	0	0	0	0	35	31	568	310	1	34	
2	0	0	0	0	28	24	532	310	1	34	
3	0	0	0	0	28	24	496	312	1	34	
4	0	0	0	0	28	24	463	310	1	34	
5	0	0	0	0	28	24	432	310	1	34	
6	0	0	0	0	35	31	412	310	1	34	
7	0	0	0	0	28	24	399	310	1	34	
8	0	0	0	0	28	24	398	310	1	34	
9	0	0	0	0	28	24	408	310	1	34	
10	0	0	0	0	28	24	428	310	1	34	
11	0	0	0	0	31	28	455	310	1	34	
12	0	0	0	0	28	24	492	310	1	34	
13	0	0	0	0	28	24	527	310	1	34	
14	0	0	0	0	28	24	563	310	1	34	
15	0	0	0	0	31	28	595	312	1	34	
0	0	0	0	0	28	24	620	312	1	34	
1	0	0	0	0	28	24	633	312	1	34	
2	0	0	0	0	28	24	638	312	1	34	
3	0	0	0	0	28	24	632	312	1	34	
4	0	0	0	0	28	24	615	312	1	34	
5	0	0	0	0	31	28	590	312	1	34	
6	0	0	0	0	35	31	560	312	1	34	
7	0	0	0	0	28	24	527	312	1	34	
8	0	0	0	0	28	24	499	312	1	34	
9	0	0	0	0	31	28	476	312	1	34	
10	0	0	0	0	31	28	455	312	1	34	
11	0	0	0	0	28	24	448	312	1	34	
12	0	0	0	0	28	24	448	312	1	34	
13	0	0	0	0	28	24	454	312	1	34	
14	0	0	0	0	28	28	470	312	1	34	
15	0	0	0	0	28	24	492	312	1	34	
0	0	0	0	0	31	28	519	312	1	34	
1	0	0	0	0	35	31	547	312	1	34	
2	0	0	0	0	28	24	575	312	1	34	
3	0	0	0	0	28	24	600	312	1	34	
4	0	0	0	0	24	24	615	312	1	34	
5	0	0	0	0	28	24	624	312	1	34	
6	0	0	0	0	31	28	622	312	1	34	
7	0	0	0	0	28	24	611	312	1	34	
8	0	0	0	0	28	24	591	312	1	34	
9	0	0	0	0	31	28	563	312	1	34	
10	0	0	0	0	28	24	531	312	1	34	
11	0	0	0	0	24	24	499	312	1	34	
12	0	0	0	0	24	24	467	312	1	34	
13	0	0	0	0	31	28	440	312	1	34	
14	0	0	0	0	24	24	423	312	1	34	
15	0	0	0	0	28	24	414	312	1	34	
0	0	0	0	0	28	24	415	312	1	34	
1	0	0	0	0	31	28	425	312	1	34	
2	0	0	0	0	28	24	448	312	1	34	
3	0	0	0	0	31	28	478	312	1	34	
4	0	0	0	0	28	24	512	312	1	34	
5	0	0	0	0	28	24	547	312	1	34	
6	0	0	0	0	35	31	583	312	1	34	
7	0	0	0	0	28	24	615	312	1	34	
8	0	0	0	0	28	24	639	312	1	34	
9	0	0	0	0	28	24	652	312	1	34	
10	0	0	0	0	28	24	655	312	1	34	
11	0	0	0	0	28	24	647	312	1	34	
12	0	0	0	0	31	28	627	312	1	34	
13	0	0	0	0	28	24	600	312	1	34	
14	0	0	0	0	24	24	568	312	1	34	
15	0	0	0	0	28	24	529	310	1	34	
0	0	0	0	0	24	24	496	310	1	34	
1	0	0	0	0	31	28	463	310	1	34	
2	0	0	0	0	31	28	440	310	1	34	
3	0	0	0	0	31	28	425	310	1	34	
4	0	0	0	0	31	28	423	310	1	34	
5	0	0	0	0	28	24	432	310	1	34	
6	0	0	0	0	28	24	449	310	1	34	
7	0	0	0	0	28	24	476	310	1	34	
8	0	0	0	0	28	24	508	310	1	34	
9	0	0	0	0	24	24	543	310	1	34	
10	0	0	0	0	31	28	575	310	1	34	
11	0	0	0	0	24	24	608	310	1	34	
12	0	0	0	0	24	24	632	310	1	34	
13	0	0	0	0	24	24	639	310	1	34	
14	0	0	0	0	28	24	647	310	1	34	
15	0	0	0	0	28	24	639	310	1	34	
0	0	0	0	0	28	24	622	310	1	34	
1	0	0	0	0	31	28	593	310	1	34	
2	0	0	0	0	28	24	560	310	1	34	
3	0	0	0	0	28	22	526	310	1	34	
4	0	0	0	0	28	24	489	310	1	34	
5	0	0	0	0	24	24	460	310	1	34	
6	0	0	0	0	31	28	435	310	1	34	
7	0	0	0	0	28	24	422	310	1	34	
8	0	0	0	0	31	28	417	310	1	34	
9	0	0	0	0	31	28	425	310	1	34	
10	0	0	0	0	28	24	444	310	1	34	
11	0	0	0	0	28	24	472	310	1	34	
12	0	0	0	0	28	24	504	310	1	34	
13	0	0	0	0	31	28	537	310	1	34	
14	0	0	0	0	28	28	572	310	1	34	
15	0	0	0	0	28	24	604	312	1	34	
0	0	0	0	0	28	24	627	312	1	34	
1	0	0	0	0	28	24	639	310	1	34	
2	0	0	0	0	35	31	639	310	1	34	
3	0	0	0	0	28	24	639	312	1	34	
4	0	0	0	0	31	28	622	310	1	34	
5	0	0	0	0	28	24	595	310	1	34	
6	0	0	0	0	31	28	561	312	1	34	
7	0	0	0	0	28	24	527	312	1	34	
8	0	0	0	0	28	24	492	312	1	34	
9	0	0	0	0	28	24	463	312	1	34	
10	0	0	0	0	28	24	440	312	1	34	
11	0	0	0	0	24	24	423	312	1	34	
12	0	0	0	0	31	28	423	312	1	34	
13	0	0	0	0	31	28	432	312	1	34	
14	0	0	0	0	28	24	451	312	1	34	
15	0	0	0	0	24	24	478	312	1	34	
0	0	0	0	0	28	24	510	312	1	34	
1	0	0	0	0	28	24	543	312	1	34	
2	0	0	0	0	35	31	575	312	1	34	
3	0	0	0	0	24	24	608	312	1	34	
4	0	0	0	0	28	24	632	312	1	34	
5	0	0	0	0	28	24	639	312	1	34	
6	0	0	0	0	35	31	639	312	1	34	
7	0	0	0	0	28	24	636	312	1	34	
8	0	0	0	0	31	28	615	312	1	34	
9	0	0	0	0	28	24	588	312	1	34	
10	0	0	0	0	31	28	556	312	1	34	
11	0	0	0	0	28	24	519	312	1	34	
12	0	0	0	0	28	24	486	312	1	34	
13	0	0	0	0	28	24	455	312	1	34	
14	0	0	0	0	25	24	435	312	1	34	
15	0	0	0	0	31	28	423	312	1	34	
0	0	0	0	0	28	24	422	310	1	34	
1	0	0	0	0	31	28	432	310	1	34	
2	0	0	0	0	28	24	449	312	1	34	
3	0	0	0	0	28	24	478	312	1	34	
4	0	0	0	0	24	24	508	312	1	34	
5	0	0	0	0	31	28	542	312	1	34	
6	0	0	0	0	28	24	575	312	1	34	
7	0	0	0	0	28	24	601	312	1	34	
8	0	0	0	0	31	28	624	312	1	34	
9	0	0	0	0	28	24	636	312	1	34	
10	0	0	0	0	28	24	636	312	1	34	
11	0	0	0	0	28	24	627	312	1	34	
12	0	0	0	0	28	24	608	312	1	34	
13	0	0	0	0	28	24	583	312	1	34	
14	0	0	0	0	28	24	550	312	1	34	
15	0	0	0	0	35	31	513	312	1	34	
0	0	0	0	0	28	24	480	312	1	34	
1	0	0	0	0	31	28	451	312	1	34	
2	0	0	0	0	24	24	430	312	1	34	
3	0	0	0	0	19	28	415	312	1	34	
4	0	0	0	0	24	24	414	312	1	34	
5	0	0	0	0	28	24	422	312	1	34	
6	0	0	0	0	35	31	440	312	1	34	
7	0	0	0	0	31	28	465	312	1	34	
8	0	0	0	0	28	24	497	312	1	34	
9	0	0	0	0	28	24	531	312	1	34	
10	0	0	0	0	24	24	566	310	1	34	
11	0	0	0	0	28	24	593	312	1	34	
12	0	0	0	0	35	31	615	310	1	34	
13	0	0	0	0	28	24	632	310	1	34	
14	0	0	0	0	24	24	632	310	1	34	
15	0	0	0	0	28	24	624	310	1	34	
0	0	0	0	0	24	24	606	310	1	34	
1	0	0	0	0	31	28	575	310	1	34	
2	0	0	0	0	28	24	543	310	1	34	
3	0	0	0	0	28	24	510	310	1	34	
4	0	0	0	0	28	24	476	308	1	34	
5	0	0	0	0	28	24	448	308	1	34	
6	0	0	0	0	28	24	423	308	1	34	
7	0	0	0	0	35	31	412	307	1	34	
8	0	0	0	0	28	24	408	307	1	34	
9	0	0	0	0	28	24	415	307	1	34	
10	0	0	0	0	28	24	435	307	1	34	
11	0	0	0	0	31	28	463	307	1	34	
12	0	0	0	0	28	24	496	307	1	34	
13	0	0	0	0	28	24	531	307	1	34	
14	0	0	0	0	28	24	568	307	1	34	
15	0	0	0	0	28	24	598	307	1	34	
0	0	0	0	0	28	24	620	307	1	34	
1	0	0	0	0	28	24	633	307	1	34	
2	0	0	0	0	31	28	638	307	1	34	
3	0	0	0	0	31	31	627	307	1	34	
4	0	0	0	0	28	24	608	307	1	34	
5	0	0	0	0	28	24	582	307	1	34	
6	0	0	0	0	35	31	543	307	1	34	
7	0	0	0	0	31	24	510	307	1	34	
8	0	0	0	0	28	24	473	307	1	34	
9	0	0	0	0	31	28	444	307	1	34	
10	0	0	0	0	31	28	417	307	1	34	
11	0	0	0	0	35	31	403	307	1	34	
12	0	0	0	0	28	24	399	307	1	34	
13	0	0	0	0	28	24	408	307	1	34	
14	0	0	0	0	24	24	425	307	1	34	
15	0	0	0	0	35	31	451	307	1	34	
0	0	0	0	0	28	24	484	307	1	34	
1	0	0	0	0	31	28	519	307	1	34	
2	0	0	0	0	31	28	553	307	1	34	
3	0	0	0	0	31	28	583	307	1	34	
4	0	0	0	0	28	24	608	307	1	34	
5	0	0	0	0	28	24	624	307	1	34	
6	0	0	0	0	28	24	627	307	1	34	
7	0	0	0	0	28	24	620	307	1	34	
8	0	0	0	0	24	24	601	307	1	34	
9	0	0	0	0	25	24	575	307	1	34	
10	0	0	0	0	31	28	543	307	1	34	
11	0	0	0	0	35	31	508	307	1	34	
12	0	0	0	0	28	24	476	307	1	34	
13	0	0	0	0	28	24	448	307	1	34	
14	0	0	0	0	28	24	423	307	1	34	
15	0	0	0	0	28	24	409	305	1	34	
0	0	0	0	0	28	24	408	305	1	34	
1	0	0	0	0	28	24	415	305	1	34	
2	0	0	0	0	31	28	432	305	1	34	
3	0	0	0	0	28	24	460	307	1	34	
4	0	0	0	0	28	24	492	307	1	34	
5	0	0	0	0	28	24	526	307	1	34	
6	0	0	0	0	24	24	560	307	1	34	
7	0	0	0	0	35	31	590	307	1	34	
8	0	0	0	0	28	24	611	307	1	34	
9	0	0	0	0	31	28	625	307	1	34	
10	0	0	0	0	28	24	632	307	1	34	
11	0	0	0	0	31	28	624	307	1	34	
12	0	0	0	0	31	28	608	307	1	34	
13	0	0	0	0	28	24	582	307	1	34	
14	0	0	0	0	24	24	550	307	1	34	
15	0	0	0	0	31	28	515	307	1	34	
0	0	0	0	0	28	24	481	307	1	34	
1	0	0	0	0	35	31	451	307	1	34	
2	0	0	0	0	31	28	432	307	1	34	
3	0	0	0	0	28	24	419	307	1	34	
4	0	0	0	0	28	24	415	307	1	34	
5	0	0	0	0	28	24	428	307	1	34	
6	0	0	0	0	31	28	448	307	1	34	
7	0	0	0	0	31	28	473	305	1	34	
8	0	0	0	0	28	24	508	305	1	34	
9	0	0	0	0	24	24	543	305	1	34	
10	0	0	0	0	28	24	575	305	1	34	
11	0	0	0	0	31	28	608	305	1	34	
12	0	0	0	0	28	24	630	305	1	34	
13	0	0	0	0	28	24	639	305	1	34	
14	0	0	0	0	28	24	639	305	1	34	
15	0	0	0	0	28	24	636	305	1	34	
0	0	0	0	0	31	28	615	305	1	34	
1	0	0	0	0	28	24	591	305	1	34	
2	0	0	0	0	28	24	560	305	1	34	
3	0	0	0	0	28	24	524	305	1	34	
4	0	0	0	0	28	24	487	305	1	34	
5	0	0	0	0	28	24	460	305	1	34	
6	0	0	0	0	31	28	440	307	1	34	
7	0	0	0	0	24	24	425	307	1	34	
8	0	0	0	0	28	24	423	307	1	34	
9	0	0	0	0	28	24	433	307	1	34	
10	0	0	0	0	28	24	454	307	1	34	
11	0	0	0	0	31	28	480	307	1	34	
12	0	0	0	0	28	24	512	307	1	34	
13	0	0	0	0	28	24	547	307	1	34	
14	0	0	0	0	24	24	582	307	1	34	
15	0	0	0	0	28	24	611	307	1	34	
0	0	0	0	0	28	24	636	307	1	34	
1	0	0	0	0	31	28	647	307	1	34	
2	0	0	0	0	28	24	654	307	1	34	
3	0	0	0	0	31	28	646	307	1	34	
4	0	0	0	0	31	28	627	310	1	34	
5	0	0	0	0	28	24	601	308	1	34	
6	0	0	0	0	28	24	569	310	1	34	
7	0	0	0	0	28	24	536	310	1	34	
8	0	0	0	0	28	24	499	310	1	34	
9	0	0	0	0	28	24	472	310	1	34	
10	0	0	0	0	28	24	448	310	1	34	
11	0	0	0	0	24	24	435	310	1	34	
12	0	0	0	0	28	24	432	310	1	34	
13	0	0	0	0	31	28	441	310	1	34	
14	0	0	0	0	31	28	460	310	1	34	
15	0	0	0	0	28	24	487	310	1	34	
0	0	0	0	0	28	24	519	312	1	34	
1	0	0	0	0	31	28	556	312	1	34	
2	0	0	0	0	28	24	588	312	1	34	
3	0	0	0	0	28	24	620	312	1	34	
4	0	0	0	0	28	24	639	312	1	34	
5	0	0	0	0	28	24	655	312	1	34	
6	0	0	0	0	35	31	659	312	1	34	
7	0	0	0	0	28	24	652	312	1	34	
8	0	0	0	0	28	24	636	312	1	34	
9	0	0	0	0	28	24	608	312	1	34	
10	0	0	0	0	24	24	575	312	1	34	
11	0	0	0	0	31	24	542	312	1	34	
12	0	0	0	0	28	24	505	312	1	34	
13	0	0	0	0	35	31	476	312	1	34	
14	0	0	0	0	24	24	455	312	1	34	
15	0	0	0	0	31	28	440	312	1	34	
0	0	0	0	0	31	28	440	312	1	34	
1	0	0	0	0	28	24	448	312	1	34	
2	0	0	0	0	31	28	467	312	1	34	
3	0	0	0	0	36	31	496	313	1	34	
4	0	0	0	0	28	24	529	313	1	34	
5	0	0	0	0	28	24	568	313	1	34	
6	0	0	0	0	36	31	600	313	1	34	
7	0	0	0	0	28	24	632	313	1	34	
8	0	0	0	0	28	24	655	313	1	34	
9	0	0	0	0	30	28	671	313	1	34	
10	0	0	0	0	28	24	675	313	1	34	
11	0	0	0	0	36	31	668	313	1	34	
12	0	0	0	0	28	24	647	313	1	34	
13	0	0	0	0	31	28	624	313	1	34	
14	0	0	0	0	28	24	590	313	1	34	
15	0	0	0	0	28	24	551	316	1	34	
0	0	0	0	0	28	24	515	313	1	34	
1	0	0	0	0	28	24	486	313	1	34	
2	0	0	0	0	28	24	462	312	1	34	
3	0	0	0	0	31	28	448	312	1	34	
4	0	0	0	0	28	24	441	312	1	34	
5	0	0	0	0	24	24	449	312	1	34	
6	0	0	0	0	31	28	467	312	1	34	
7	0	0	0	0	31	28	494	312	1	34	
8	0	0	0	0	31	28	527	312	1	34	
9	0	0	0	0	28	24	561	312	1	34	
10	0	0	0	0	31	28	595	312	1	34	
11	0	0	0	0	28	24	625	312	1	34	
12	0	0	0	0	28	24	649	312	1	34	
13	0	0	0	0	28	24	664	312	1	34	
14	0	0	0	0	24	24	668	312	1	34	
15	0	0	0	0	28	24	659	312	1	34	
0	0	0	0	0	28	24	639	312	1	34	
1	0	0	0	0	31	28	614	312	1	34	
2	0	0	0	0	31	28	579	312	1	34	
3	0	0	0	0	28	24	543	312	1	34	
4	0	0	0	0	28	24	508	312	1	34	
5	0	0	0	0	28	24	476	312	1	34	
6	0	0	0	0	28	24	451	312	1	34	
7	0	0	0	0	28	24	438	312	1	34	
8	0	0	0	0	28	24	433	312	1	34	
9	0	0	0	0	28	24	440	312	1	34	
10	0	0	0	0	28	24	460	312	1	34	
11	0	0	0	0	24	24	487	312	1	34	
12	0	0	0	0	28	24	519	312	1	34	
13	0	0	0	0	24	24	551	312	1	34	
14	0	0	0	0	28	24	588	312	1	34	
15	0	0	0	0	31	28	617	312	1	34	
0	0	0	0	0	28	24	639	312	1	34	
1	0	0	0	0	28	24	655	312	1	34	
2	0	0	0	0	36	31	659	313	1	34	
3	0	0	0	0	31	28	652	312	1	34	
4	0	0	0	0	28	24	632	312	1	34	
5	0	0	0	0	28	24	608	312	1	34	
6	0	0	0	0	28	24	572	312	1	34	
7	0	0	0	0	28	24	536	312	1	34	
8	0	0	0	0	36	31	497	312	1	34	
9	0	0	0	0	28	24	467	312	1	34	
10	0	0	0	0	28	24	441	312	1	34	
11	0	0	0	0	28	24	425	312	1	34	
12	0	0	0	0	28	24	422	312	1	34	
13	0	0	0	0	28	24	428	312	1	34	
14	0	0	0	0	25	24	444	312	1	34	
15	0	0	0	0	31	28	468	312	1	34	
0	0	0	0	0	28	24	499	312	1	34	
1	0	0	0	0	28	24	536	312	1	34	
2	0	0	0	0	31	28	568	312	1	34	
3	0	0	0	0	31	28	593	312	1	34	
4	0	0	0	0	28	24	615	312	1	34	
5	0	0	0	0	31	28	632	312	1	34	
6	0	0	0	0	28	24	632	312	1	34	
7	0	0	0	0	28	24	624	312	1	34	
8	0	0	0	0	28	24	608	312	1	34	
9	0	0	0	0	28	24	575	312	1	34	
10	0	0	0	0	28	24	543	312	1	34	
11	0	0	0	0	31	28	511	312	1	34	
12	0	0	0	0	31	28	476	312	1	34	
13	0	0	0	0	28	24	448	312	1	34	
14	0	0	0	0	28	24	423	312	1	34	
15	0	0	0	0	28	24	409	312	1	34	
0	0	0	0	0	31	28	408	312	1	34	
1	0	0	0	0	24	24	415	312	1	34	
2	0	0	0	0	28	24	433	312	1	34	
3	0	0	0	0	35	31	460	312	1	34	
4	0	0	0	0	28	24	494	312	1	34	
5	0	0	0	0	28	24	527	312	1	34	
6	0	0	0	0	35	31	563	312	1	34	
7	0	0	0	0	28	24	593	312	1	34	
8	0	0	0	0	31	28	617	312	1	34	
9	0	0	0	0	31	28	632	312	1	34	
10	0	0	0	0	24	24	636	312	1	34	
11	0	0	0	0	28	24	627	312	1	34	
12	0	0	0	0	35	31	608	312	1	34	
13	0	0	0	0	28	24	582	312	1	34	
14	0	0	0	0	28	28	547	312	1	34	
15	0	0	0	0	28	22	511	312	1	34	
0	0	0	0	0	28	28	476	312	1	34	
1	0	0	0	0	31	28	441	312	1	34	
2	0	0	0	0	28	24	419	312	1	34	
3	0	0	0	0	28	24	403	312	1	34	
4	0	0	0	0	31	28	399	312	1	34	
5	0	0	0	0	28	24	408	312	1	34	
6	0	0	0	0	31	28	423	312	1	34	
7	0	0	0	0	28	24	451	310	1	34	
8	0	0	0	0	31	28	483	310	1	34	
9	0	0	0	0	31	28	519	310	1	34	
10	0	0	0	0	28	24	551	310	1	34	
11	0	0	0	0	28	24	583	310	1	34	
12	0	0	0	0	28	24	608	310	1	34	
13	0	0	0	0	35	31	620	310	1	34	
14	0	0	0	0	28	24	624	308	1	34	
15	0	0	0	0	28	24	615	308	1	34	
0	0	0	0	0	31	28	600	308	1	34	
1	0	0	0	0	28	24	572	308	1	34	
2	0	0	0	0	28	24	537	307	1	34	
3	0	0	0	0	31	28	504	307	1	34	
4	0	0	0	0	28	24	465	307	1	34	
5	0	0	0	0	28	24	435	307	1	34	
6	0	0	0	0	31	28	412	307	1	34	
7	0	0	0	0	28	24	398	307	1	34	
8	0	0	0	0	28	24	396	307	1	34	
9	0	0	0	0	28	24	403	307	1	34	
10	0	0	0	0	31	28	423	307	1	34	
11	0	0	0	0	28	24	451	307	1	34	
12	0	0	0	0	31	28	483	307	1	34	
13	0	0	0	0	28	24	519	307	1	34	
14	0	0	0	0	24	24	558	307	1	34	
15	0	0	0	0	35	31	590	307	1	34	
0	0	0	0	0	28	24	615	307	1	34	
1	0	0	0	0	35	31	630	307	1	34	
2	0	0	0	0	28	24	632	307	1	34	
3	0	0	0	0	28	24	624	307	1	34	
4	0	0	0	0	31	28	604	307	1	34	
5	0	0	0	0	31	28	574	307	1	34	
6	0	0	0	0	24	24	536	307	1	34	
7	0	0	0	0	28	24	496	307	1	34	
8	0	0	0	0	35	31	460	307	1	34	
9	0	0	0	0	24	24	423	307	1	34	
10	0	0	0	0	28	24	399	307	1	34	
11	0	0	0	0	31	28	384	307	1	34	
12	0	0	0	0	31	28	380	307	1	34	
13	0	0	0	0	31	28	387	307	1	34	
14	0	0	0	0	31	28	408	307	1	34	
15	0	0	0	0	31	28	438	307	1	34	
0	0	0	0	0	28	24	472	307	1	34	
1	0	0	0	0	28	24	512	307	1	34	
2	0	0	0	0	24	24	551	307	1	34	
3	0	0	0	0	28	24	588	307	1	34	
4	0	0	0	0	28	24	615	307	1	34	
5	0	0	0	0	28	24	632	307	1	34	
6	0	0	0	0	28	24	639	307	1	34	
7	0	0	0	0	28	24	636	310	1	34	
8	0	0	0	0	28	24	617	310	1	34	
9	0	0	0	0	28	24	591	308	1	34	
10	0	0	0	0	31	28	560	307	1	34	
11	0	0	0	0	28	24	519	307	1	34	
12	0	0	0	0	24	24	483	307	1	34	
13	0	0	0	0	35	31	451	307	1	34	
14	0	0	0	0	24	24	425	308	1	34	
15	0	0	0	0	31	28	412	308	1	34	
0	0	0	0	0	28	24	408	310	1	34	
1	0	0	0	0	28	24	414	307	1	34	
2	0	0	0	0	28	24	432	308	1	34	
3	0	0	0	0	31	28	460	308	1	34	
4	0	0	0	0	31	28	492	307	1	34	
5	0	0	0	0	31	28	527	310	1	34	
6	0	0	0	0	28	24	563	310	1	34	
7	0	0	0	0	24	24	595	310	1	34	
8	0	0	0	0	28	24	620	310	1	34	
9	0	0	0	0	25	24	636	310	1	34	
10	0	0	0	0	31	28	639	310	1	34	
11	0	0	0	0	35	31	632	312	1	34	
12	0	0	0	0	31	28	614	310	1	34	
13	0	0	0	0	28	24	583	312	1	34	
14	0	0	0	0	31	28	551	312	1	34	
15	0	0	0	0	28	24	515	312	1	34	
0	0	0	0	0	28	24	480	312	1	34	
1	0	0	0	0	28	24	448	312	1	34	
2	0	0	0	0	31	28	423	312	1	34	
3	0	0	0	0	24	24	408	312	1	34	
4	0	0	0	0	28	24	408	312	1	34	
5	0	0	0	0	24	24	415	312	1	34	
6	0	0	0	0	31	28	435	312	1	34	
7	0	0	0	0	31	28	463	312	1	34	
8	0	0	0	0	31	28	499	312	1	34	
9	0	0	0	0	35	31	537	312	1	34	
10	0	0	0	0	28	24	575	312	1	34	
11	0	0	0	0	28	24	608	312	1	34	
12	0	0	0	0	28	24	633	312	1	34	
13	0	0	0	0	31	28	647	312	1	34	
14	0	0	0	0	24	24	655	312	1	34	
15	0	0	0	0	31	28	647	312	1	34	
0	0	0	0	0	31	28	632	312	1	34	
1	0	0	0	0	31	28	600	312	1	34	
2	0	0	0	0	28	24	568	312	1	34	
3	0	0	0	0	28	22	529	312	1	34	
4	0	0	0	0	28	24	494	312	1	34	
5	0	0	0	0	28	24	462	312	1	34	
6	0	0	0	0	35	31	435	312	1	34	
7	0	0	0	0	31	28	419	312	1	34	
8	0	0	0	0	28	24	415	312	1	34	
9	0	0	0	0	25	24	423	312	1	34	
10	0	0	0	0	24	24	444	310	1	34	
11	0	0	0	0	31	28	472	310	1	34	
12	0	0	0	0	28	24	508	310	1	34	
13	0	0	0	0	31	28	543	310	1	34	
14	0	0	0	0	31	28	583	310	1	34	
15	0	0	0	0	28	24	615	310	1	34	
0	0	0	0	0	28	24	639	312	1	34	
1	0	0	0	0	28	24	664	310	1	34	
2	0	0	0	0	35	31	668	310	1	34	
3	0	0	0	0	28	24	664	312	1	34	
4	0	0	0	0	28	24	639	312	1	34	
5	0	0	0	0	28	24	615	312	1	34	
6	0	0	0	0	24	24	583	312	1	34	
7	0	0	0	0	35	31	543	312	1	34	
8	0	0	0	0	28	24	508	312	1	34	
9	0	0	0	0	31	28	476	312	1	34	
10	0	0	0	0	28	24	448	312	1	34	
11	0	0	0	0	28	24	432	312	1	34	
12	0	0	0	0	31	28	428	312	1	34	
13	0	0	0	0	28	24	435	312	1	34	
14	0	0	0	0	24	24	451	312	1	34	
15	0	0	0	0	31	28	480	312	1	34	
0	0	0	0	0	28	24	512	312	1	34	
1	0	0	0	0	35	31	550	312	1	34	
2	0	0	0	0	31	28	583	312	1	34	
3	0	0	0	0	28	24	615	312	1	34	
4	0	0	0	0	28	24	639	312	1	34	
5	0	0	0	0	28	24	655	312	1	34	
6	0	0	0	0	31	28	660	312	1	34	
7	0	0	0	0	31	28	654	312	1	34	
8	0	0	0	0	28	24	636	312	1	34	
9	0	0	0	0	28	24	608	312	1	34	
10	0	0	0	0	28	24	574	312	1	34	
11	0	0	0	0	31	28	536	312	1	34	
12	0	0	0	0	28	24	497	312	1	34	
13	0	0	0	0	28	24	465	312	1	34	
14	0	0	0	0	28	24	440	312	1	34	
15	0	0	0	0	28	24	423	312	1	34	
0	0	0	0	0	31	28	423	312	1	34	
1	0	0	0	0	28	24	432	312	1	34	
2	0	0	0	0	28	24	449	312	1	34	
3	0	0	0	0	28	24	480	312	1	34	
4	0	0	0	0	31	28	512	312	1	34	
5	0	0	0	0	28	24	551	312	1	34	
6	0	0	0	0	31	28	588	312	1	34	
7	0	0	0	0	24	24	622	312	1	34	
8	0	0	0	0	28	24	647	312	1	34	
9	0	0	0	0	28	24	664	312	1	34	
10	0	0	0	0	31	28	670	312	1	34	
11	0	0	0	0	31	28	664	312	1	34	
12	0	0	0	0	31	28	639	312	1	34	
13	0	0	0	0	28	24	615	312	1	34	
14	0	0	0	0	24	24	583	312	1	34	
15	0	0	0	0	24	24	543	312	1	34	
0	0	0	0	0	28	24	505	312	1	34	
1	0	0	0	0	31	28	472	312	1	34	
2	0	0	0	0	35	31	448	312	1	34	
3	0	0	0	0	28	24	430	312	1	34	
4	0	0	0	0	28	24	423	312	1	34	
5	0	0	0	0	28	24	432	312	1	34	
6	0	0	0	0	31	28	448	312	1	34	
7	0	0	0	0	28	24	476	312	1	34	
8	0	0	0	0	31	28	510	312	1	34	
9	0	0	0	0	31	28	543	312	1	34	
10	0	0	0	0	31	28	583	312	1	34	
11	0	0	0	0	24	24	615	312	1	34	
12	0	0	0	0	31	28	639	312	1	34	
13	0	0	0	0	28	24	657	312	1	34	
14	0	0	0	0	31	28	664	312	1	34	
15	0	0	0	0	28	24	655	312	1	34	
0	0	0	0	0	28	24	639	312	1	34	
1	0	0	0	0	31	28	611	312	1	34	
2	0	0	0	0	28	24	575	312	1	34	
3	0	0	0	0	28	24	540	312	1	34	
4	0	0	0	0	28	24	504	312	1	34	
5	0	0	0	0	31	28	470	312	1	34	
6	0	0	0	0	35	31	444	312	1	34	
7	0	0	0	0	24	24	428	312	1	34	
8	0	0	0	0	28	24	423	312	1	34	
9	0	0	0	0	28	24	432	312	1	34	
10	0	0	0	0	35	31	449	312	1	34	
11	0	0	0	0	35	31	480	312	1	34	
12	0	0	0	0	28	24	512	312	1	34	
13	0	0	0	0	31	28	550	312	1	34	
14	0	0	0	0	20	24	588	312	1	34	
15	0	0	0	0	28	24	620	312	1	34	
0	0	0	0	0	28	24	646	312	1	34	
1	0	0	0	0	24	24	664	312	1	34	
2	0	0	0	0	28	24	665	312	1	34	
3	0	0	0	0	28	24	659	312	1	34	
4	0	0	0	0	28	24	639	312	1	34	
5	0	0	0	0	28	24	614	312	1	34	
6	0	0	0	0	35	31	575	312	1	34	
7	0	0	0	0	28	22	540	312	1	34	
8	0	0	0	0	28	25	504	312	1	34	
9	0	0	0	0	28	24	472	312	1	34	
10	0	0	0	0	31	28	448	312	1	34	
11	0	0	0	0	35	31	430	312	1	34	
12	0	0	0	0	28	24	423	312	1	34	
13	0	0	0	0	35	31	432	312	1	34	
14	0	0	0	0	35	31	449	312	1	34	
15	0	0	0	0	35	31	480	312	1	34	
0	0	0	0	0	28	24	511	312	1	34	
1	0	0	0	0	28	24	547	312	1	34	
2	0	0	0	0	28	24	583	312	1	34	
3	0	0	0	0	31	28	615	310	1	34	
4	0	0	0	0	28	24	639	310	1	34	
5	0	0	0	0	24	24	657	310	1	34	
6	0	0	0	0	31	28	664	310	1	34	
7	0	0	0	0	31	28	655	310	1	34	
8	0	0	0	0	28	24	639	310	1	34	
9	0	0	0	0	35	31	611	310	1	34	
10	0	0	0	0	31	28	575	310	1	34	
11	0	0	0	0	28	24	540	310	1	34	
12	0	0	0	0	28	24	504	310	1	34	
13	0	0	0	0	28	24	470	310	1	34	
14	0	0	0	0	24	24	444	310	1	34	
15	0	0	0	0	28	24	428	310	1	34	
0	0	0	0	0	28	24	423	310	1	34	
1	0	0	0	0	35	31	432	310	1	34	
2	0	0	0	0	31	28	449	310	1	34	
3	0	0	0	0	28	24	478	310	1	34	
4	0	0	0	0	28	24	511	310	1	34	
5	0	0	0	0	28	24	547	310	1	34	
6	0	0	0	0	28	24	583	310	1	34	
7	0	0	0	0	28	24	615	310	1	34	
8	0	0	0	0	28	24	639	310	1	34	
9	0	0	0	0	25	24	659	310	1	34	
10	0	0	0	0	28	24	664	310	1	34	
11	0	0	0	0	24	24	655	312	1	34	
12	0	0	0	0	28	24	639	312	1	34	
13	0	0	0	0	24	24	611	312	1	34	
14	0	0	0	0	28	24	575	312	1	34	
15	0	0	0	0	31	28	537	312	1	34	
0	0	0	0	0	31	28	499	312	1	34	
1	0	0	0	0	31	28	467	310	1	34	
2	0	0	0	0	35	31	440	312	1	34	
3	0	0	0	0	31	28	423	312	1	34	
4	0	0	0	0	28	24	419	312	1	34	
5	0	0	0	0	28	24	428	312	1	34	
6	0	0	0	0	28	24	448	312	1	34	
7	0	0	0	0	28	24	472	312	1	34	
8	0	0	0	0	35	31	508	312	1	34	
9	0	0	0	0	28	24	543	312	1	34	
10	0	0	0	0	28	24	582	312	1	34	
11	0	0	0	0	28	24	615	312	1	34	
12	0	0	0	0	28	24	639	312	1	34	
13	0	0	0	0	28	24	655	312	1	34	
14	0	0	0	0	25	24	664	312	1	34	
15	0	0	0	0	31	28	655	312	1	34	
0	0	0	0	0	28	24	639	312	1	34	
1	0	0	0	0	28	24	609	312	1	34	
2	0	0	0	0	31	28	575	312	1	34	
3	0	0	0	0	28	24	540	312	1	34	
4	0	0	0	0	28	24	504	312	1	34	
5	0	0	0	0	31	28	472	312	1	34	
6	0	0	0	0	28	24	444	312	1	34	
7	0	0	0	0	28	24	428	312	1	34	
8	0	0	0	0	28	24	423	312	1	34	
9	0	0	0	0	28	24	432	312	1	34	
10	0	0	0	0	28	24	449	312	1	34	
11	0	0	0	0	31	28	478	312	1	34	
12	0	0	0	0	31	28	511	312	1	34	
13	0	0	0	0	28	24	547	312	1	34	
14	0	0	0	0	28	24	583	312	1	34	
15	0	0	0	0	28	24	615	312	1	34	
0	0	0	0	0	31	28	639	312	1	34	
1	0	0	0	0	24	24	657	312	1	34	
2	0	0	0	0	28	24	664	312	1	34	
3	0	0	0	0	35	31	655	312	1	34	
4	0	0	0	0	28	24	638	310	1	34	
5	0	0	0	0	28	24	608	310	1	34	
6	0	0	0	0	35	31	574	310	1	34	
7	0	0	0	0	28	24	536	310	1	34	
8	0	0	0	0	31	28	499	310	1	34	
9	0	0	0	0	31	28	465	310	1	34	
10	0	0	0	0	24	24	440	310	1	34	
11	0	0	0	0	31	28	423	310	1	34	
12	0	0	0	0	35	31	422	310	1	34	
13	0	0	0	0	28	24	430	310	1	34	
14	0	0	0	0	28	28	448	310	1	34	
15	0	0	0	0	28	24	476	310	1	34	
0	0	0	0	0	31	28	508	310	1	34	
1	0	0	0	0	35	31	543	310	1	34	
2	0	0	0	0	28	24	582	310	1	34	
3	0	0	0	0	28	24	615	310	1	34	
4	0	0	0	0	28	24	639	310	1	34	
5	0	0	0	0	28	24	655	310	1	34	
6	0	0	0	0	31	28	659	310	1	34	
7	0	0	0	0	28	24	654	310	1	34	
8	0	0	0	0	28	24	636	310	1	34	
9	0	0	0	0	31	28	608	310	1	34	
10	0	0	0	0	28	24	575	310	1	34	
11	0	0	0	0	35	28	536	310	1	34	
12	0	0	0	0	24	24	502	310	1	34	
13	0	0	0	0	28	24	467	310	1	34	
14	0	0	0	0	28	24	444	310	1	34	
15	0	0	0	0	24	24	428	310	1	34	
0	0	0	0	0	28	24	423	310	1	34	
1	0	0	0	0	28	24	432	310	1	34	
2	0	0	0	0	31	28	451	310	1	34	
3	0	0	0	0	31	28	480	310	1	34	
4	0	0	0	0	31	28	513	310	1	34	
5	0	0	0	0	28	24	551	310	1	34	
6	0	0	0	0	35	31	590	310	1	34	
7	0	0	0	0	31	28	622	310	1	34	
8	0	0	0	0	28	24	647	310	1	34	
9	0	0	0	0	28	24	664	310	1	34	
10	0	0	0	0	28	24	670	310	1	34	
11	0	0	0	0	24	24	664	310	1	34	
12	0	0	0	0	28	24	639	310	1	34	
13	0	0	0	0	28	24	615	310	1	34	
14	0	0	0	0	30	28	575	310	1	34	
15	0	0	0	0	28	24	540	310	1	34	
0	0	0	0	0	28	24	502	310	1	34	
1	0	0	0	0	31	28	465	310	1	34	
2	0	0	0	0	24	24	440	310	1	34	
3	0	0	0	0	24	24	423	310	1	34	
4	0	0	0	0	28	24	415	310	1	34	
5	0	0	0	0	28	24	423	310	1	34	
6	0	0	0	0	35	31	441	310	1	34	
7	0	0	0	0	28	24	472	310	1	34	
8	0	0	0	0	28	24	504	312	1	34	
9	0	0	0	0	28	24	543	312	1	34	
10	0	0	0	0	24	24	579	310	1	34	
11	0	0	0	0	31	28	615	312	1	34	
12	0	0	0	0	31	28	639	312	1	34	
13	0	0	0	0	28	24	659	312	1	34	
14	0	0	0	0	28	24	665	312	1	34	
15	0	0	0	0	31	28	660	310	1	34	
0	0	0	0	0	31	28	639	310	1	34	
1	0	0	0	0	28	24	617	310	1	34	
2	0	0	0	0	28	24	583	310	1	34	
3	0	0	0	0	28	24	547	312	1	34	
4	0	0	0	0	28	24	510	312	1	34	
5	0	0	0	0	31	28	476	310	1	34	
6	0	0	0	0	31	28	449	310	1	34	
7	0	0	0	0	35	31	432	310	1	34	
8	0	0	0	0	35	31	428	310	1	34	
9	0	0	0	0	28	24	433	310	1	34	
10	0	0	0	0	28	24	451	310	1	34	
11	0	0	0	0	28	24	480	310	1	34	
12	0	0	0	0	28	24	511	310	1	34	
13	0	0	0	0	28	24	547	310	1	34	
14	0	0	0	0	24	24	583	310	1	34	
15	0	0	0	0	28	24	615	310	1	34	
0	0	0	0	0	28	24	639	312	1	34	
1	0	0	0	0	35	31	655	310	1	34	
2	0	0	0	0	28	24	664	312	1	34	
3	0	0	0	0	31	28	655	310	1	34	
4	0	0	0	0	31	28	638	310	1	34	
5	0	0	0	0	28	24	611	310	1	34	
6	0	0	0	0	28	24	575	312	1	34	
7	0	0	0	0	28	24	540	310	1	34	
8	0	0	0	0	28	24	504	310	1	34	
9	0	0	0	0	25	24	472	310	1	34	
10	0	0	0	0	28	24	448	310	1	34	
11	0	0	0	0	24	24	430	312	1	34	
12	0	0	0	0	28	24	425	312	1	34	
13	0	0	0	0	35	31	433	310	1	34	
14	0	0	0	0	28	24	454	310	1	34	
15	0	0	0	0	28	24	480	310	1	34	
0	0	0	0	0	28	24	515	312	1	34	
1	0	0	0	0	28	24	551	310	1	34	
2	0	0	0	0	28	24	588	310	1	34	
3	0	0	0	0	24	24	620	312	1	34	
4	0	0	0	0	31	28	647	310	1	34	
5	0	0	0	0	28	24	664	312	1	34	
6	0	0	0	0	28	24	668	312	1	34	
7	0	0	0	0	31	28	659	312	1	34	
8	0	0	0	0	28	24	639	312	1	34	
9	0	0	0	0	28	24	615	312	1	34	
10	0	0	0	0	31	28	579	312	1	34	
11	0	0	0	0	24	24	543	312	1	34	
12	0	0	0	0	28	24	505	312	1	34	
13	0	0	0	0	24	24	472	312	1	34	
14	0	0	0	0	30	28	448	312	1	34	
15	0	0	0	0	28	24	432	312	1	34	
0	0	0	0	0	28	24	428	312	1	34	
1	0	0	0	0	28	24	435	312	1	34	
2	0	0	0	0	31	28	454	312	1	34	
3	0	0	0	0	28	24	480	312	1	34	
4	0	0	0	0	28	24	515	312	1	34	
5	0	0	0	0	28	24	551	312	1	34	
6	0	0	0	0	28	24	590	312	1	34	
7	0	0	0	0	31	28	624	312	1	34	
8	0	0	0	0	24	24	647	312	1	34	
9	0	0	0	0	31	28	665	312	1	34	
10	0	0	0	0	28	24	671	312	1	34	
11	0	0	0	0	31	28	664	312	1	34	
12	0	0	0	0	31	28	647	312	1	34	
13	0	0	0	0	31	28	620	312	1	34	
14	0	0	0	0	31	28	583	312	1	34	
15	0	0	0	0	24	22	543	312	1	34	
0	0	0	0	0	24	24	508	312	1	34	
1	0	0	0	0	24	24	476	312	1	34	
2	0	0	0	0	24	24	448	312	1	34	
3	0	0	0	0	28	24	432	312	1	34	
4	0	0	0	0	28	24	425	312	1	34	
5	0	0	0	0	28	24	433	312	1	34	
6	0	0	0	0	31	28	451	312	1	34	
7	0	0	0	0	31	28	480	312	1	34	
8	0	0	0	0	28	24	513	312	1	34	
9	0	0	0	0	31	28	551	312	1	34	
10	0	0	0	0	28	24	588	312	1	34	
11	0	0	0	0	28	24	622	312	1	34	
12	0	0	0	0	28	24	647	312	1	34	
13	0	0	0	0	28	24	664	312	1	34	
14	0	0	0	0	24	24	670	312	1	34	
15	0	0	0	0	31	28	664	312	1	34	
0	0	0	0	0	28	24	647	312	1	34	
1	0	0	0	0	31	28	620	312	1	34	
2	0	0	0	0	28	24	585	312	1	34	
3	0	0	0	0	28	24	550	312	1	34	
4	0	0	0	0	24	24	512	312	1	34	
5	0	0	0	0	28	24	480	312	1	34	
6	0	0	0	0	28	24	455	312	1	34	
7	0	0	0	0	31	28	440	312	1	34	
8	0	0	0	0	28	24	433	312	1	34	
9	0	0	0	0	24	24	440	312	1	34	
10	0	0	0	0	28	24	455	312	1	34	
11	0	0	0	0	28	24	483	312	1	34	
12	0	0	0	0	31	28	515	312	1	34	
13	0	0	0	0	28	24	551	312	1	34	
14	0	0	0	0	28	24	588	312	1	34	
15	0	0	0	0	28	24	617	312	1	34	
0	0	0	0	0	31	28	639	312	1	34	
1	0	0	0	0	31	28	659	312	1	34	
2	0	0	0	0	28	24	664	312	1	34	
3	0	0	0	0	28	24	655	312	1	34	
4	0	0	0	0	28	24	639	312	1	34	
5	0	0	0	0	28	24	614	312	1	34	
6	0	0	0	0	35	31	575	312	1	34	
7	0	0	0	0	28	24	542	312	1	34	
8	0	0	0	0	24	24	504	312	1	34	
9	0	0	0	0	28	24	472	312	1	34	
10	0	0	0	0	28	24	448	312	1	34	
11	0	0	0	0	28	24	430	312	1	34	
12	0	0	0	0	31	28	423	312	1	34	
13	0	0	0	0	28	24	432	312	1	34	
14	0	0	0	0	24	24	449	312	1	34	
15	0	0	0	0	35	31	476	312	1	34	
0	0	0	0	0	31	28	511	312	1	34	
1	0	0	0	0	31	28	547	312	1	34	
2	0	0	0	0	28	24	583	312	1	34	
3	0	0	0	0	28	24	620	312	1	34	
4	0	0	0	0	24	24	646	312	1	34	
5	0	0	0	0	28	24	664	312	1	34	
6	0	0	0	0	28	24	668	312	1	34	
7	0	0	0	0	31	28	664	310	1	34	
8	0	0	0	0	31	28	639	310	1	34	
9	0	0	0	0	25	24	617	310	1	34	
10	0	0	0	0	35	31	583	310	1	34	
11	0	0	0	0	31	28	543	310	1	34	
12	0	0	0	0	31	28	508	310	1	34	
13	0	0	0	0	28	24	472	310	1	34	
14	0	0	0	0	28	24	448	310	1	34	
15	0	0	0	0	24	24	430	310	1	34	
0	0	0	0	0	28	24	423	310	1	34	
1	0	0	0	0	31	28	430	310	1	34	
2	0	0	0	0	28	24	448	310	1	34	
3	0	0	0	0	28	24	472	310	1	34	
4	0	0	0	0	31	28	505	310	1	34	
5	0	0	0	0	28	24	543	310	1	34	
6	0	0	0	0	31	28	575	310	1	34	
7	0	0	0	0	28	24	611	310	1	34	
8	0	0	0	0	24	24	638	310	1	34	
9	0	0	0	0	28	24	655	310	1	34	
10	0	0	0	0	28	24	659	310	1	34	
11	0	0	0	0	28	24	654	310	1	34	
12	0	0	0	0	28	24	636	308	1	34	
13	0	0	0	0	31	28	609	310	1	34	
14	0	0	0	0	24	24	575	310	1	34	
15	0	0	0	0	28	24	537	310	1	34	
0	0	0	0	0	31	28	502	310	1	34	
1	0	0	0	0	28	24	467	310	1	34	
2	0	0	0	0	31	28	444	310	1	34	
3	0	0	0	0	31	28	428	310	1	34	
4	0	0	0	0	28	24	423	310	1	34	
5	0	0	0	0	28	24	432	310	1	34	
6	0	0	0	0	28	24	448	310	1	34	
7	0	0	0	0	28	24	476	310	1	34	
8	0	0	0	0	28	24	510	310	1	34	
9	0	0	0	0	31	28	543	310	1	34	
10	0	0	0	0	28	24	583	310	1	34	
11	0	0	0	0	24	24	615	310	1	34	
12	0	0	0	0	28	24	639	310	1	34	
13	0	0	0	0	31	28	657	310	1	34	
14	0	0	0	0	31	28	664	310	1	34	
15	0	0	0	0	31	28	657	310	1	34	
0	0	0	0	0	24	24	639	310	1	34	
1	0	0	0	0	28	24	615	310	1	34	
2	0	0	0	0	24	24	582	310	1	34	
3	0	0	0	0	28	22	543	312	1	34	
4	0	0	0	0	28	24	508	312	1	34	
5	0	0	0	0	31	28	476	312	1	34	
6	0	0	0	0	31	28	448	312	1	34	
7	0	0	0	0	31	28	432	312	1	34	
8	0	0	0	0	28	24	428	312	1	34	
9	0	0	0	0	28	24	433	312	1	34	
10	0	0	0	0	35	31	451	312	1	34	
11	0	0	0	0	31	28	480	312	1	34	
12	0	0	0	0	28	24	512	312	1	34	
13	0	0	0	0	35	31	550	312	1	34	
14	0	0	0	0	24	24	585	312	1	34	
15	0	0	0	0	28	24	620	312	1	34	
0	0	0	0	0	28	24	646	312	1	34	
1	0	0	0	0	31	28	664	312	1	34	
2	0	0	0	0	28	24	668	312	1	34	
3	0	0	0	0	31	28	660	312	1	34	
4	0	0	0	0	31	28	639	312	1	34	
5	0	0	0	0	28	24	615	312	1	34	
6	0	0	0	0	35	31	582	312	1	34	
7	0	0	0	0	28	24	543	312	1	34	
8	0	0	0	0	28	24	508	312	1	34	
9	0	0	0	0	28	24	473	312	1	34	
10	0	0	0	0	31	28	448	312	1	34	
11	0	0	0	0	31	28	432	312	1	34	
12	0	0	0	0	28	24	428	312	1	34	
13	0	0	0	0	28	24	433	312	1	34	
14	0	0	0	0	28	24	451	312	1	34	
15	0	0	0	0	35	31	480	312	1	34	
0	0	0	0	0	28	24	512	312	1	34	
1	0	0	0	0	28	24	551	312	1	34	
2	0	0	0	0	31	28	588	310	1	34	
3	0	0	0	0	31	28	622	310	1	34	
4	0	0	0	0	31	28	647	310	1	34	
5	0	0	0	0	28	24	664	310	1	34	
6	0	0	0	0	31	28	671	310	1	34	
7	0	0	0	0	31	28	664	312	1	34	
8	0	0	0	0	31	28	647	310	1	34	
9	0	0	0	0	31	28	620	310	1	34	
10	0	0	0	0	31	28	583	310	1	34	
11	0	0	0	0	28	24	547	312	1	34	
12	0	0	0	0	35	31	508	310	1	34	
13	0	0	0	0	28	24	472	312	1	34	
14	0	0	0	0	24	24	448	312	1	34	
15	0	0	0	0	28	24	430	312	1	34	
0	0	0	0	0	31	28	423	310	1	34	
1	0	0	0	0	35	31	430	312	1	34	
2	0	0	0	0	31	28	448	310	1	34	
3	0	0	0	0	24	24	476	312	1	34	
4	0	0	0	0	28	24	508	312	1	34	
5	0	0	0	0	28	24	543	312	1	34	
6	0	0	0	0	31	28	583	312	1	34	
7	0	0	0	0	31	28	615	312	1	34	
8	0	0	0	0	31	28	639	312	1	34	
9	0	0	0	0	31	28	659	312	1	34	
10	0	0	0	0	28	24	665	312	1	34	
11	0	0	0	0	35	31	659	312	1	34	
12	0	0	0	0	28	24	639	312	1	34	
13	0	0	0	0	28	24	615	312	1	34	
14	0	0	0	0	28	24	583	310	1	34	
15	0	0	0	0	28	24	543	312	1	34	
0	0	0	0	0	28	24	505	312	1	34	
1	0	0	0	0	28	24	472	312	1	34	
2	0	0	0	0	28	24	448	312	1	34	
3	0	0	0	0	28	24	432	312	1	34	
4	0	0	0	0	24	24	423	312	1	34	
5	0	0	0	0	31	28	432	310	1	34	
6	0	0	0	0	28	24	449	312	1	34	
7	0	0	0	0	28	24	476	312	1	34	
8	0	0	0	0	31	28	511	312	1	34	
9	0	0	0	0	35	31	547	312	1	34	
10	0	0	0	0	35	31	583	312	1	34	
11	0	0	0	0	28	24	617	312	1	34	
12	0	0	0	0	28	24	639	312	1	34	
13	0	0	0	0	24	24	664	312	1	34	
14	0	0	0	0	24	24	668	312	1	34	
15	0	0	0	0	28	24	664	312	1	34	
0	0	0	0	0	28	24	647	312	1	34	
1	0	0	0	0	28	24	620	312	1	34	
2	0	0	0	0	28	24	588	312	1	34	
3	0	0	0	0	31	28	550	312	1	34	
4	0	0	0	0	28	24	511	312	1	34	
5	0	0	0	0	28	24	480	312	1	34	
6	0	0	0	0	28	24	451	312	1	34	
7	0	0	0	0	28	24	433	312	1	34	
8	0	0	0	0	31	28	428	312	1	34	
9	0	0	0	0	25	24	432	310	1	34	
10	0	0	0	0	24	24	449	310	1	34	
11	0	0	0	0	31	28	476	310	1	34	
12	0	0	0	0	35	31	510	310	1	34	
13	0	0	0	0	28	24	543	310	1	34	
14	0	0	0	0	31	28	583	310	1	34	
15	0	0	0	0	28	24	615	310	1	34	
0	0	0	0	0	28	24	639	310	1	34	
1	0	0	0	0	31	28	655	310	1	34	
2	0	0	0	0	28	24	664	310	1	34	
3	0	0	0	0	28	24	655	310	1	34	
4	0	0	0	0	31	28	639	310	1	34	
5	0	0	0	0	31	28	614	310	1	34	
6	0	0	0	0	35	31	575	310	1	34	
7	0	0	0	0	31	24	543	310	1	34	
8	0	0	0	0	28	24	505	310	1	34	
9	0	0	0	0	28	24	473	310	1	34	
10	0	0	0	0	28	24	448	310	1	34	
11	0	0	0	0	31	28	432	310	1	34	
12	0	0	0	0	28	24	428	310	1	34	
13	0	0	0	0	31	28	435	310	1	34	
14	0	0	0	0	24	24	454	310	1	34	
15	0	0	0	0	35	31	480	310	1	34	
0	0	0	0	0	31	28	513	312	1	34	
1	0	0	0	0	31	28	551	312	1	34	
2	0	0	0	0	31	28	588	310	1	34	
3	0	0	0	0	28	24	620	310	1	34	
4	0	0	0	0	28	24	646	310	1	34	
5	0	0	0	0	28	24	664	310	1	34	
6	0	0	0	0	31	28	668	312	1	34	
7	0	0	0	0	28	24	659	312	1	34	
8	0	0	0	0	28	24	639	312	1	34	
9	0	0	0	0	28	24	615	312	1	34	
10	0	0	0	0	28	24	579	312	1	34	
11	0	0	0	0	24	24	543	312	1	34	
12	0	0	0	0	28	24	504	312	1	34	
13	0	0	0	0	28	24	472	310	1	34	
14	0	0	0	0	28	24	448	310	1	34	
15	0	0	0	0	28	24	432	310	1	34	
0	0	0	0	0	28	24	423	310	1	34	
1	0	0	0	0	31	28	432	310	1	34	
2	0	0	0	0	28	24	451	310	1	34	
3	0	0	0	0	31	28	480	310	1	34	
4	0	0	0	0	28	24	512	310	1	34	
5	0	0	0	0	28	24	550	310	1	34	
6	0	0	0	0	35	31	585	310	1	34	
7	0	0	0	0	28	24	620	312	1	34	
8	0	0	0	0	28	24	646	310	1	34	
9	0	0	0	0	28	24	664	310	1	34	
10	0	0	0	0	28	24	668	310	1	34	
11	0	0	0	0	31	28	662	310	1	34	
12	0	0	0	0	31	28	639	310	1	34	
13	0	0	0	0	24	24	617	312	1	34	
14	0	0	0	0	24	24	583	312	1	34	
15	0	0	0	0	28	24	547	312	1	34	
0	0	0	0	0	31	28	510	312	1	34	
1	0	0	0	0	35	31	476	312	1	34	
2	0	0	0	0	28	24	451	312	1	34	
3	0	0	0	0	24	24	435	312	1	34	
4	0	0	0	0	35	31	430	312	1	34	
5	0	0	0	0	28	24	435	312	1	34	
6	0	0	0	0	28	24	455	312	1	34	
7	0	0	0	0	31	28	480	312	1	34	
8	0	0	0	0	31	28	515	312	1	34	
9	0	0	0	0	31	28	551	312	1	34	
10	0	0	0	0	28	24	590	312	1	34	
11	0	0	0	0	35	31	622	312	1	34	
12	0	0	0	0	28	24	647	312	1	34	
13	0	0	0	0	28	24	665	312	1	34	
14	0	0	0	0	28	24	671	312	1	34	
15	0	0	0	0	31	28	664	312	1	34	
0	0	0	0	0	24	24	647	312	1	34	
1	0	0	0	0	31	28	620	312	1	34	
2	0	0	0	0	31	28	585	312	1	34	
3	0	0	0	0	28	28	547	312	1	34	
4	0	0	0	0	28	24	510	312	1	34	
5	0	0	0	0	28	24	476	312	1	34	
6	0	0	0	0	35	31	448	312	1	34	
7	0	0	0	0	31	28	432	312	1	34	
8	0	0	0	0	31	28	423	310	1	34	
9	0	0	0	0	28	24	432	312	1	34	
10	0	0	0	0	35	31	448	312	1	34	
11	0	0	0	0	31	28	473	312	1	34	
12	0	0	0	0	24	24	508	312	1	34	
13	0	0	0	0	28	24	543	310	1	34	
14	0	0	0	0	24	24	582	312	1	34	
15	0	0	0	0	28	24	615	312	1	34	
0	0	0	0	0	31	28	639	310	1	34	
1	0	0	0	0	31	28	657	310	1	34	
2	0	0	0	0	31	28	664	310	1	34	
3	0	0	0	0	35	31	659	310	1	34	
4	0	0	0	0	31	28	639	310	1	34	
5	0	0	0	0	24	24	615	312	1	34	
6	0	0	0	0	35	31	583	312	1	34	
7	0	0	0	0	28	24	547	312	1	34	
8	0	0	0	0	31	28	511	312	1	34	
9	0	0	0	0	28	24	478	312	1	34	
10	0	0	0	0	31	28	451	312	1	34	
11	0	0	0	0	28	24	433	312	1	34	
12	0	0	0	0	28	24	428	312	1	34	
13	0	0	0	0	28	24	435	312	1	34	
14	0	0	0	0	35	31	451	312	1	34	
15	0	0	0	0	28	24	480	312	1	34	
0	0	0	0	0	31	28	511	312	1	34	
1	0	0	0	0	35	31	543	312	1	34	
2	0	0	0	0	28	24	583	312	1	34	
3	0	0	0	0	28	24	615	312	1	34	
4	0	0	0	0	28	24	639	312	1	34	
5	0	0	0	0	28	24	655	312	1	34	
6	0	0	0	0	28	24	664	312	1	34	
7	0	0	0	0	28	24	655	312	1	34	
8	0	0	0	0	31	28	639	312	1	34	
9	0	0	0	0	28	24	615	312	1	34	
10	0	0	0	0	28	24	579	312	1	34	
11	0	0	0	0	31	24	543	312	1	34	
12	0	0	0	0	28	24	505	312	1	34	
13	0	0	0	0	28	24	472	312	1	34	
14	0	0	0	0	24	24	448	312	1	34	
15	0	0	0	0	28	24	432	312	1	34	
0	0	0	0	0	31	28	423	312	1	34	
1	0	0	0	0	31	28	432	312	1	34	
2	0	0	0	0	28	24	451	312	1	34	
3	0	0	0	0	31	28	480	312	1	34	
4	0	0	0	0	31	28	511	312	1	34	
5	0	0	0	0	28	24	547	312	1	34	
6	0	0	0	0	28	24	583	312	1	34	
7	0	0	0	0	31	28	620	312	1	34	
8	0	0	0	0	28	24	647	312	1	34	
9	0	0	0	0	30	28	664	312	1	34	
10	0	0	0	0	31	28	671	312	1	34	
11	0	0	0	0	31	28	668	312	1	34	
12	0	0	0	0	35	31	652	312	1	34	
13	0	0	0	0	28	24	624	312	1	34	
14	0	0	0	0	28	24	591	312	1	34	
15	0	0	0	0	28	24	551	312	1	34	
0	0	0	0	0	24	24	513	312	1	34	
1	0	0	0	0	28	24	480	312	1	34	
2	0	0	0	0	28	24	451	312	1	34	
3	0	0	0	0	35	31	432	312	1	34	
4	0	0	0	0	28	24	423	312	1	34	
5	0	0	0	0	28	24	431	312	1	34	
6	0	0	0	0	24	24	448	312	1	34	
7	0	0	0	0	31	28	472	312	1	34	
8	0	0	0	0	31	28	504	312	1	34	
9	0	0	0	0	28	24	540	312	1	34	
10	0	0	0	0	28	24	575	312	1	34	
11	0	0	0	0	28	24	611	312	1	34	
12	0	0	0	0	28	24	638	312	1	34	
13	0	0	0	0	28	24	655	312	1	34	
14	0	0	0	0	24	24	664	312	1	34	
15	0	0	0	0	31	28	655	312	1	34	
0	0	0	0	0	35	31	639	312	1	34	
1	0	0	0	0	31	28	615	312	1	34	
2	0	0	0	0	28	24	582	312	1	34	
3	0	0	0	0	28	24	543	310	1	34	
4	0	0	0	0	31	28	508	312	1	34	
5	0	0	0	0	28	24	473	312	1	34	
6	0	0	0	0	28	24	448	312	1	34	
7	0	0	0	0	28	24	432	312	1	34	
8	0	0	0	0	31	28	423	310	1	34	
9	0	0	0	0	25	24	432	310	1	34	
10	0	0	0	0	31	28	449	310	1	34	
11	0	0	0	0	31	28	476	310	1	34	
12	0	0	0	0	31	28	510	310	1	34	
13	0	0	0	0	31	28	545	310	1	34	
14	0	0	0	0	24	24	583	310	1	34	
15	0	0	0	0	28	24	615	312	1	34	
0	0	0	0	0	24	24	639	312	1	34	
1	0	0	0	0	24	24	659	312	1	34	
2	0	0	0	0	24	24	664	312	1	34	
3	0	0	0	0	28	24	659	312	1	34	
4	0	0	0	0	24	24	639	312	1	34	
5	0	0	0	0	24	24	615	312	1	34	
6	0	0	0	0	31	28	583	310	1	34	
7	0	0	0	0	28	24	547	310	1	34	
8	0	0	0	0	31	28	510	310	1	34	
9	0	0	0	0	28	24	478	312	1	34	
10	0	0	0	0	28	24	451	310	1	34	
11	0	0	0	0	24	24	435	310	1	34	
12	0	0	0	0	28	24	430	310	1	34	
13	0	0	0	0	31	28	435	310	1	34	
14	0	0	0	0	24	24	454	310	1	34	
15	0	0	0	0	28	24	480	312	1	34	
0	0	0	0	0	28	24	512	310	1	34	
1	0	0	0	0	24	24	551	310	1	34	
2	0	0	0	0	28	24	585	310	1	34	
3	0	0	0	0	28	24	617	310	1	34	
4	0	0	0	0	28	24	639	310	1	34	
5	0	0	0	0	28	24	659	310	1	34	
6	0	0	0	0	28	24	665	310	1	34	
7	0	0	0	0	28	24	659	310	1	34	
8	0	0	0	0	35	31	639	310	1	34	
9	0	0	0	0	28	24	615	310	1	34	
10	0	0	0	0	28	24	583	312	1	34	
11	0	0	0	0	31	28	543	310	1	34	
12	0	0	0	0	28	24	508	310	1	34	
13	0	0	0	0	28	24	476	310	1	34	
14	0	0	0	0	28	24	448	310	1	34	
15	0	0	0	0	28	24	432	310	1	34	
0	0	0	0	0	28	24	423	310	1	34	
1	0	0	0	0	31	28	432	310	1	34	
2	0	0	0	0	28	24	448	310	1	34	
3	0	0	0	0	28	24	476	310	1	34	
4	0	0	0	0	35	31	508	310	1	34	
5	0	0	0	0	28	24	543	312	1	34	
6	0	0	0	0	24	24	583	310	1	34	
7	0	0	0	0	28	24	615	310	1	34	
8	0	0	0	0	28	24	639	310	1	34	
9	0	0	0	0	31	28	657	310	1	34	
10	0	0	0	0	24	24	664	312	1	34	
11	0	0	0	0	28	24	659	312	1	34	
12	0	0	0	0	35	31	639	310	1	34	
13	0	0	0	0	28	24	615	312	1	34	
14	0	0	0	0	24	24	583	312	1	34	
15	0	0	0	0	28	22	547	312	1	34	
0	0	0	0	0	24	24	510	312	1	34	
1	0	0	0	0	35	31	476	312	1	34	
2	0	0	0	0	28	24	451	312	1	34	
3	0	0	0	0	31	28	435	312	1	34	
4	0	0	0	0	24	24	430	312	1	34	
5	0	0	0	0	31	28	435	312	1	34	
6	0	0	0	0	35	31	455	312	1	34	
7	0	0	0	0	28	24	480	312	1	34	
8	0	0	0	0	31	28	512	312	1	34	
9	0	0	0	0	28	24	550	312	1	34	
10	0	0	0	0	31	28	583	312	1	34	
11	0	0	0	0	31	28	615	312	1	34	
12	0	0	0	0	31	28	639	312	1	34	
13	0	0	0	0	24	24	657	312	1	34	
14	0	0	0	0	31	28	664	312	1	34	
15	0	0	0	0	24	24	655	312	1	34	
0	0	0	0	0	24	24	639	312	1	34	
1	0	0	0	0	28	24	615	312	1	34	
2	0	0	0	0	28	24	579	312	1	34	
3	0	0	0	0	28	24	543	312	1	34	
4	0	0	0	0	24	24	508	312	1	34	
5	0	0	0	0	28	24	473	312	1	34	
6	0	0	0	0	35	31	448	312	1	34	
7	0	0	0	0	28	24	432	310	1	34	
8	0	0	0	0	28	24	423	310	1	34	
9	0	0	0	0	28	24	432	312	1	34	
10	0	0	0	0	24	24	448	312	1	34	
11	0	0	0	0	28	24	476	310	1	34	
12	0	0	0	0	24	24	508	310	1	34	
13	0	0	0	0	28	24	543	310	1	34	
14	0	0	0	0	25	24	582	312	1	34	
15	0	0	0	0	28	24	615	310	1	34	
0	0	0	0	0	31	28	639	310	1	34	
1	0	0	0	0	28	24	659	310	1	34	
2	0	0	0	0	31	28	664	310	1	34	
3	0	0	0	0	35	31	659	312	1	34	
4	0	0	0	0	28	24	639	312	1	34	
5	0	0	0	0	28	24	620	312	1	34	
6	0	0	0	0	28	24	583	310	1	34	
7	0	0	0	0	28	24	547	310	1	34	
8	0	0	0	0	28	24	511	312	1	34	
9	0	0	0	0	28	24	480	312	1	34	
10	0	0	0	0	28	24	451	310	1	34	
11	0	0	0	0	35	31	435	310	1	34	
12	0	0	0	0	28	24	430	310	1	34	
13	0	0	0	0	28	24	435	310	1	34	
14	0	0	0	0	28	24	451	310	1	34	
15	0	0	0	0	28	24	480	312	1	34	
0	0	0	0	0	28	24	511	310	1	34	
1	0	0	0	0	28	24	543	312	1	34	
2	0	0	0	0	35	31	583	310	1	34	
3	0	0	0	0	28	24	615	310	1	34	
4	0	0	0	0	28	24	639	312	1	34	
5	0	0	0	0	31	28	657	312	1	34	
6	0	0	0	0	35	31	664	312	1	34	
7	0	0	0	0	28	24	659	312	1	34	
8	0	0	0	0	28	24	639	312	1	34	
9	0	0	0	0	31	28	615	312	1	34	
10	0	0	0	0	28	24	583	312	1	34	
11	0	0	0	0	28	24	547	312	1	34	
12	0	0	0	0	31	28	510	312	1	34	
13	0	0	0	0	31	28	476	312	1	34	
14	0	0	0	0	24	24	449	312	1	34	
15	0	0	0	0	28	24	433	312	1	34	
0	0	0	0	0	28	24	428	312	1	34	
1	0	0	0	0	31	28	433	312	1	34	
2	0	0	0	0	28	24	451	312	1	34	
3	0	0	0	0	28	24	478	312	1	34	
4	0	0	0	0	28	24	510	312	1	34	
5	0	0	0	0	28	24	543	312	1	34	
6	0	0	0	0	28	24	583	312	1	34	
7	0	0	0	0	31	28	615	312	1	34	
8	0	0	0	0	31	28	639	312	1	34	
9	0	0	0	0	28	24	657	312	1	34	
10	0	0	0	0	28	24	664	312	1	34	
11	0	0	0	0	31	28	659	312	1	34	
12	0	0	0	0	28	24	639	312	1	34	
13	0	0	0	0	24	24	617	312	1	34	
14	0	0	0	0	28	24	583	312	1	34	
15	0	0	0	0	31	28	547	312	1	34	
0	0	0	0	0	31	28	511	312	1	34	
1	0	0	0	0	31	28	480	312	1	34	
2	0	0	0	0	35	31	451	312	1	34	
3	0	0	0	0	31	28	435	312	1	34	
4	0	0	0	0	28	24	432	312	1	34	
5	0	0	0	0	28	24	438	312	1	34	
6	0	0	0	0	28	24	455	312	1	34	
7	0	0	0	0	28	24	480	312	1	34	
8	0	0	0	0	35	31	513	312	1	34	
9	0	0	0	0	28	24	551	312	1	34	
10	0	0	0	0	28	24	588	312	1	34	
11	0	0	0	0	28	24	620	312	1	34	
12	0	0	0	0	31	28	646	310	1	34	
13	0	0	0	0	28	24	664	310	1	34	
14	0	0	0	0	25	24	668	312	1	34	
15	0	0	0	0	31	28	664	312	1	34	
0	0	0	0	0	28	24	646	310	1	34	
1	0	0	0	0	35	31	615	310	1	34	
2	0	0	0	0	31	28	583	310	1	34	
3	0	0	0	0	28	22	545	310	1	34	
4	0	0	0	0	28	24	510	308	1	34	
5	0	0	0	0	28	24	476	310	1	34	
6	0	0	0	0	31	28	449	308	1	34	
7	0	0	0	0	28	24	433	307	1	34	
8	0	0	0	0	28	24	430	308	1	34	
9	0	0	0	0	35	31	435	310	1	34	
10	0	0	0	0	28	24	454	310	1	34	
11	0	0	0	0	31	28	480	308	1	34	
12	0	0	0	0	28	24	513	308	1	34	
13	0	0	0	0	28	24	551	308	1	34	
14	0	0	0	0	28	24	588	308	1	34	
15	0	0	0	0	31	28	620	310	1	34	
0	0	0	0	0	28	24	646	310	1	34	
1	0	0	0	0	28	24	664	307	1	34	
2	0	0	0	0	28	24	668	310	1	34	
3	0	0	0	0	28	24	662	310	1	34	
4	0	0	0	0	24	24	639	310	1	34	
5	0	0	0	0	31	28	615	310	1	34	
6	0	0	0	0	35	31	583	310	1	34	
7	0	0	0	0	24	24	543	310	1	34	
8	0	0	0	0	31	28	508	310	1	34	
9	0	0	0	0	28	24	476	310	1	34	
10	0	0	0	0	35	31	448	310	1	34	
11	0	0	0	0	35	31	432	310	1	34	
12	0	0	0	0	28	24	428	310	1	34	
13	0	0	0	0	31	28	433	310	1	34	
14	0	0	0	0	22	24	451	310	1	34	
15	0	0	0	0	28	24	480	310	1	34	
0	0	0	0	0	28	24	511	310	1	34	
1	0	0	0	0	24	24	550	310	1	34	
2	0	0	0	0	31	28	583	310	1	34	
3	0	0	0	0	28	24	620	310	1	34	
4	0	0	0	0	28	24	639	310	1	34	
5	0	0	0	0	28	24	664	310	1	34	
6	0	0	0	0	28	24	668	310	1	34	
7	0	0	0	0	28	24	664	310	1	34	
8	0	0	0	0	28	24	647	312	1	34	
9	0	0	0	0	25	24	622	310	1	34	
10	0	0	0	0	31	28	588	310	1	34	
11	0	0	0	0	35	31	550	310	1	34	
12	0	0	0	0	28	24	512	310	1	34	
13	0	0	0	0	28	24	480	312	1	34	
14	0	0	0	0	28	24	454	312	1	34	
15	0	0	0	0	28	24	435	312	1	34	
0	0	0	0	0	28	24	432	310	1	34	
1	0	0	0	0	24	24	435	310	1	34	
2	0	0	0	0	28	24	454	312	1	34	
3	0	0	0	0	24	24	480	312	1	34	
4	0	0	0	0	28	24	512	312	1	34	
5	0	0	0	0	31	28	547	312	1	34	
6	0	0	0	0	31	28	583	312	1	34	
7	0	0	0	0	31	28	615	312	1	34	
8	0	0	0	0	35	31	639	312	1	34	
9	0	0	0	0	28	24	660	312	1	34	
10	0	0	0	0	31	28	668	312	1	34	
11	0	0	0	0	28	24	664	312	1	34	
12	0	0	0	0	28	24	647	312	1	34	
13	0	0	0	0	31	28	620	312	1	34	
14	0	0	0	0	24	24	588	312	1	34	
15	0	0	0	0	24	24	551	312	1	34	
0	0	0	0	0	28	24	512	312	1	34	
1	0	0	0	0	31	28	480	312	1	34	
2	0	0	0	0	35	31	454	312	1	34	
3	0	0	0	0	35	31	435	312	1	34	
4	0	0	0	0	35	31	432	312	1	34	
5	0	0	0	0	28	24	435	312	1	34	
6	0	0	0	0	35	31	454	312	1	34	
7	0	0	0	0	28	24	480	312	1	34	
8	0	0	0	0	28	24	513	312	1	34	
9	0	0	0	0	28	24	551	312	1	34	
10	0	0	0	0	28	24	588	312	1	34	
11	0	0	0	0	24	24	624	312	1	34	
12	0	0	0	0	28	24	647	312	1	34	
13	0	0	0	0	35	31	665	312	1	34	
14	0	0	0	0	28	24	671	312	1	34	
15	0	0	0	0	24	24	668	312	1	34	
0	0	0	0	0	28	24	649	312	1	34	
1	0	0	0	0	28	24	624	312	1	34	
2	0	0	0	0	31	28	588	312	1	34	
3	0	0	0	0	31	28	550	312	1	34	
4	0	0	0	0	31	28	511	312	1	34	
5	0	0	0	0	35	31	476	312	1	34	
6	0	0	0	0	28	24	448	312	1	34	
7	0	0	0	0	28	24	432	312	1	34	
8	0	0	0	0	28	24	423	312	1	34	
9	0	0	0	0	35	31	432	312	1	34	
10	0	0	0	0	28	24	448	312	1	34	
11	0	0	0	0	28	24	476	312	1	34	
12	0	0	0	0	31	28	511	312	1	34	
13	0	0	0	0	28	24	547	312	1	34	
14	0	0	0	0	24	24	585	312	1	34	
15	0	0	0	0	31	28	620	312	1	34	
0	0	0	0	0	28	24	647	312	1	34	
1	0	0	0	0	35	31	665	312	1	34	
2	0	0	0	0	28	24	671	312	1	34	
3	0	0	0	0	28	24	668	312	1	34	
4	0	0	0	0	31	28	649	312	1	34	
5	0	0	0	0	31	28	624	312	1	34	
6	0	0	0	0	28	24	590	312	1	34	
7	0	0	0	0	28	22	551	312	1	34	
8	0	0	0	0	24	24	512	312	1	34	
9	0	0	0	0	28	24	480	312	1	34	
10	0	0	0	0	24	24	451	312	1	34	
11	0	0	0	0	35	31	433	312	1	34	
12	0	0	0	0	28	24	428	310	1	34	
13	0	0	0	0	28	24	433	310	1	34	
14	0	0	0	0	28	24	451	312	1	34	
15	0	0	0	0	28	24	476	312	1	34	
0	0	0	0	0	28	24	510	312	1	34	
1	0	0	0	0	31	28	543	312	1	34	
2	0	0	0	0	31	28	583	312	1	34	
3	0	0	0	0	28	24	615	312	1	34	
4	0	0	0	0	28	24	639	312	1	34	
5	0	0	0	0	28	24	659	312	1	34	
6	0	0	0	0	24	24	665	312	1	34	
7	0	0	0	0	31	28	659	312	1	34	
8	0	0	0	0	28	24	639	312	1	34	
9	0	0	0	0	31	28	620	312	1	34	
10	0	0	0	0	28	24	585	312	1	34	
11	0	0	0	0	28	24	550	312	1	34	
12	0	0	0	0	28	24	512	310	1	34	
13	0	0	0	0	31	28	480	310	1	34	
14	0	0	0	0	24	24	451	310	1	34	
15	0	0	0	0	28	24	435	310	1	34	
0	0	0	0	0	35	31	430	310	1	34	
1	0	0	0	0	35	31	435	310	1	34	
2	0	0	0	0	28	24	451	310	1	34	
3	0	0	0	0	28	24	480	310	1	34	
4	0	0	0	0	28	24	512	310	1	34	
5	0	0	0	0	28	24	550	310	1	34	
6	0	0	0	0	31	28	585	310	1	34	
7	0	0	0	0	28	24	620	312	1	34	
8	0	0	0	0	31	28	647	310	1	34	
9	0	0	0	0	28	24	664	310	1	34	
10	0	0	0	0	28	24	671	312	1	34	
11	0	0	0	0	24	24	665	312	1	34	
12	0	0	0	0	28	24	647	312	1	34	
13	0	0	0	0	24	24	624	312	1	34	
14	0	0	0	0	28	24	590	312	1	34	
15	0	0	0	0	31	28	551	312	1	34	
0	0	0	0	0	31	28	513	312	1	34	
1	0	0	0	0	31	28	480	312	1	34	
2	0	0	0	0	28	24	451	312	1	34	
3	0	0	0	0	28	24	433	312	1	34	
4	0	0	0	0	35	31	428	312	1	34	
5	0	0	0	0	28	24	432	312	1	34	
6	0	0	0	0	31	28	449	312	1	34	
7	0	0	0	0	28	24	476	312	1	34	
8	0	0	0	0	28	24	510	310	1	34	
9	0	0	0	0	31	28	543	310	1	34	
10	0	0	0	0	28	24	583	310	1	34	
11	0	0	0	0	28	24	615	310	1	34	
12	0	0	0	0	31	28	639	312	1	34	
13	0	0	0	0	28	24	664	312	1	34	
14	0	0	0	0	31	31	670	312	1	34	
15	0	0	0	0	31	28	665	312	1	34	
0	0	0	0	0	28	24	652	312	1	34	
1	0	0	0	0	31	28	624	312	1	34	
2	0	0	0	0	31	28	591	312	1	34	
3	0	0	0	0	28	24	556	312	1	34	
4	0	0	0	0	28	24	519	312	1	34	
5	0	0	0	0	28	24	483	312	1	34	
6	0	0	0	0	28	24	455	312	1	34	
7	0	0	0	0	28	24	440	312	1	34	
8	0	0	0	0	28	24	432	312	1	34	
9	0	0	0	0	28	24	435	312	1	34	
10	0	0	0	0	28	24	451	310	1	34	
11	0	0	0	0	31	28	476	310	1	34	
12	0	0	0	0	31	28	508	310	1	34	
13	0	0	0	0	28	24	543	310	1	34	
14	0	0	0	0	28	24	582	310	1	34	
15	0	0	0	0	28	24	615	310	1	34	
0	0	0	0	0	28	24	639	312	1	34	
1	0	0	0	0	24	24	659	310	1	34	
2	0	0	0	0	28	24	665	310	1	34	
3	0	0	0	0	35	31	662	310	1	34	
4	0	0	0	0	28	24	646	310	1	34	
5	0	0	0	0	28	24	620	312	1	34	
6	0	0	0	0	24	24	583	312	1	34	
7	0	0	0	0	28	24	550	312	1	34	
8	0	0	0	0	28	24	511	312	1	34	
9	0	0	0	0	31	28	480	312	1	34	
10	0	0	0	0	28	24	451	312	1	34	
11	0	0	0	0	31	28	433	312	1	34	
12	0	0	0	0	28	24	428	312	1	34	
13	0	0	0	0	28	24	433	312	1	34	
14	0	0	0	0	24	24	451	312	1	34	
15	0	0	0	0	28	24	480	312	1	34	
0	0	0	0	0	35	31	512	312	1	34	
1	0	0	0	0	31	28	551	312	1	34	
2	0	0	0	0	28	24	588	312	1	34	
3	0	0	0	0	28	24	622	312	1	34	
4	0	0	0	0	31	28	647	312	1	34	
5	0	0	0	0	31	28	665	312	1	34	
6	0	0	0	0	31	28	671	312	1	34	
7	0	0	0	0	28	24	668	312	1	34	
8	0	0	0	0	28	24	649	312	1	34	
9	0	0	0	0	24	24	624	312	1	34	
10	0	0	0	0	28	24	590	312	1	34	
11	0	0	0	0	35	28	551	312	1	34	
12	0	0	0	0	28	24	512	312	1	34	
13	0	0	0	0	24	24	480	312	1	34	
14	0	0	0	0	31	28	449	312	1	34	
15	0	0	0	0	28	24	432	312	1	34	
0	0	0	0	0	28	24	425	312	1	34	
1	0	0	0	0	35	31	432	312	1	34	
2	0	0	0	0	28	24	448	312	1	34	
3	0	0	0	0	28	24	476	312	1	34	
4	0	0	0	0	35	31	510	312	1	34	
5	0	0	0	0	28	24	543	312	1	34	
6	0	0	0	0	35	31	583	312	1	34	
7	0	0	0	0	28	24	617	312	1	34	
8	0	0	0	0	31	28	646	312	1	34	
9	0	0	0	0	28	24	664	312	1	34	
10	0	0	0	0	28	24	671	312	1	34	
11	0	0	0	0	28	24	665	312	1	34	
12	0	0	0	0	35	31	649	312	1	34	
13	0	0	0	0	28	24	624	312	1	34	
14	0	0	0	0	30	28	591	312	1	34	
15	0	0	0	0	28	24	551	312	1	34	
0	0	0	0	0	31	28	515	312	1	34	
1	0	0	0	0	31	28	480	312	1	34	
2	0	0	0	0	28	24	455	312	1	34	
3	0	0	0	0	31	28	436	312	1	34	
4	0	0	0	0	28	24	432	312	1	34	
5	0	0	0	0	28	24	436	310	1	34	
6	0	0	0	0	28	24	454	310	1	34	
7	0	0	0	0	28	24	480	312	1	34	
8	0	0	0	0	31	28	512	312	1	34	
9	0	0	0	0	31	28	550	310	1	34	
10	0	0	0	0	24	24	583	310	1	34	
11	0	0	0	0	31	28	617	310	1	34	
12	0	0	0	0	31	28	639	310	1	34	
13	0	0	0	0	28	24	662	310	1	34	
14	0	0	0	0	24	24	668	310	1	34	
15	0	0	0	0	28	24	664	310	1	34	
0	0	0	0	0	28	24	646	310	1	34	
1	0	0	0	0	28	24	620	310	1	34	
2	0	0	0	0	35	31	585	310	1	34	
3	0	0	0	0	28	24	550	310	1	34	
4	0	0	0	0	28	24	512	310	1	34	
5	0	0	0	0	28	24	480	310	1	34	
6	0	0	0	0	31	28	451	310	1	34	
7	0	0	0	0	28	24	435	310	1	34	
8	0	0	0	0	28	24	430	310	1	34	
9	0	0	0	0	24	24	433	310	1	34	
10	0	0	0	0	28	24	451	310	1	34	
11	0	0	0	0	24	24	476	310	1	34	
12	0	0	0	0	28	24	510	312	1	34	
13	0	0	0	0	24	24	543	310	1	34	
14	0	0	0	0	24	24	583	312	1	34	
15	0	0	0	0	35	31	615	312	1	34	
0	0	0	0	0	24	24	639	312	1	34	
1	0	0	0	0	35	31	659	312	1	34	
2	0	0	0	0	24	24	668	312	1	34	
3	0	0	0	0	31	28	664	312	1	34	
4	0	0	0	0	28	24	647	312	1	34	
5	0	0	0	0	31	28	624	312	1	34	
6	0	0	0	0	28	24	591	312	1	34	
7	0	0	0	0	31	28	553	312	1	34	
8	0	0	0	0	28	24	518	312	1	34	
9	0	0	0	0	28	24	483	312	1	34	
10	0	0	0	0	24	24	455	312	1	34	
11	0	0	0	0	28	24	440	312	1	34	
12	0	0	0	0	24	24	432	312	1	34	
13	0	0	0	0	28	24	440	312	1	34	
14	0	0	0	0	28	24	455	312	1	34	
15	0	0	0	0	28	24	480	312	1	34	
0	0	0	0	0	31	28	512	312	1	34	
1	0	0	0	0	31	28	548	312	1	34	
2	0	0	0	0	31	28	583	312	1	34	
3	0	0	0	0	28	28	617	312	1	34	
4	0	0	0	0	28	24	639	312	1	34	
5	0	0	0	0	28	24	664	312	1	34	
6	0	0	0	0	35	31	668	312	1	34	
7	0	0	0	0	31	28	664	312	1	34	
8	0	0	0	0	31	28	647	312	1	34	
9	0	0	0	0	28	24	624	310	1	34	
10	0	0	0	0	35	31	591	310	1	34	
11	0	0	0	0	31	28	553	310	1	34	
12	0	0	0	0	24	24	518	312	1	34	
13	0	0	0	0	28	24	483	310	1	34	
14	0	0	0	0	25	24	455	312	1	34	
15	0	0	0	0	28	24	440	310	1	34	
0	0	0	0	0	31	28	433	310	1	34	
1	0	0	0	0	31	28	440	312	1	34	
2	0	0	0	0	31	28	455	312	1	34	
3	0	0	0	0	35	31	480	312	1	34	
4	0	0	0	0	31	28	513	312	1	34	
5	0	0	0	0	24	24	551	312	1	34	
6	0	0	0	0	35	31	588	312	1	34	
7	0	0	0	0	28	24	620	312	1	34	
8	0	0	0	0	31	28	647	312	1	34	
9	0	0	0	0	28	24	664	312	1	34	
10	0	0	0	0	31	28	671	312	1	34	
11	0	0	0	0	28	24	664	312	1	34	
12	0	0	0	0	28	24	647	312	1	34	
13	0	0	0	0	28	24	624	312	1	34	
14	0	0	0	0	35	31	588	312	1	34	
15	0	0	0	0	28	22	551	312	1	34	
0	0	0	0	0	31	28	512	312	1	34	
1	0	0	0	0	28	24	480	310	1	34	
2	0	0	0	0	28	24	451	312	1	34	
3	0	0	0	0	31	28	433	310	1	34	
4	0	0	0	0	31	28	428	310	1	34	
5	0	0	0	0	28	24	433	310	1	34	
6	0	0	0	0	24	24	451	310	1	34	
7	0	0	0	0	31	28	476	312	1	34	
8	0	0	0	0	31	28	510	312	1	34	
9	0	0	0	0	28	24	543	312	1	34	
10	0	0	0	0	28	24	583	312	1	34	
11	0	0	0	0	28	24	615	312	1	34	
12	0	0	0	0	28	24	639	312	1	34	
13	0	0	0	0	28	24	662	312	1	34	
14	0	0	0	0	24	24	668	312	1	34	
15	0	0	0	0	28	24	664	312	1	34	
0	0	0	0	0	28	24	647	312	1	34	
1	0	0	0	0	28	24	624	312	1	34	
2	0	0	0	0	28	24	591	312	1	34	
3	0	0	0	0	35	31	551	312	1	34	
4	0	0	0	0	28	24	515	312	1	34	
5	0	0	0	0	28	24	483	312	1	34	
6	0	0	0	0	28	24	455	312	1	34	
7	0	0	0	0	28	24	438	312	1	34	
8	0	0	0	0	28	24	432	312	1	34	
9	0	0	0	0	28	24	435	312	1	34	
10	0	0	0	0	28	24	451	312	1	34	
11	0	0	0	0	31	28	476	312	1	34	
12	0	0	0	0	31	28	508	312	1	34	
13	0	0	0	0	28	24	543	310	1	34	
14	0	0	0	0	28	24	583	310	1	34	
15	0	0	0	0	28	24	615	310	1	34	
0	0	0	0	0	35	31	639	310	1	34	
1	0	0	0	0	31	28	664	312	1	34	
2	0	0	0	0	28	24	671	310	1	34	
3	0	0	0	0	31	31	668	310	1	34	
4	0	0	0	0	28	24	654	310	1	34	
5	0	0	0	0	28	24	627	312	1	34	
6	0	0	0	0	24	24	595	312	1	34	
7	0	0	0	0	28	24	560	312	1	34	
8	0	0	0	0	35	31	519	312	1	34	
9	0	0	0	0	31	28	483	312	1	34	
10	0	0	0	0	24	24	455	312	1	34	
11	0	0	0	0	31	28	435	312	1	34	
12	0	0	0	0	28	24	428	312	1	34	
13	0	0	0	0	28	24	432	312	1	34	
14	0	0	0	0	24	24	448	312	1	34	
15	0	0	0	0	28	24	472	312	1	34	
0	0	0	0	0	31	28	504	312	1	34	
1	0	0	0	0	35	31	540	312	1	34	
2	0	0	0	0	28	24	575	312	1	34	
3	0	0	0	0	28	24	609	312	1	34	
4	0	0	0	0	28	24	638	312	1	34	
5	0	0	0	0	28	24	655	312	1	34	
6	0	0	0	0	28	24	664	312	1	34	
7	0	0	0	0	28	24	662	312	1	34	
8	0	0	0	0	31	28	647	312	1	34	
9	0	0	0	0	27	24	624	312	1	34	
10	0	0	0	0	31	28	591	312	1	34	
11	0	0	0	0	35	31	553	312	1	34	
12	0	0	0	0	31	28	519	312	1	34	
13	0	0	0	0	28	24	486	312	1	34	
14	0	0	0	0	28	24	457	312	1	34	
15	0	0	0	0	28	24	440	312	1	34	
0	0	0	0	0	28	24	433	312	1	34	
1	0	0	0	0	28	24	440	312	1	34	
2	0	0	0	0	31	28	454	312	1	34	
3	0	0	0	0	24	24	480	312	1	34	
4	0	0	0	0	28	24	510	312	1	34	
5	0	0	0	0	28	24	543	312	1	34	
6	0	0	0	0	31	28	579	312	1	34	
7	0	0	0	0	31	28	611	312	1	34	
8	0	0	0	0	28	24	639	312	1	34	
9	0	0	0	0	31	28	655	312	1	34	
10	0	0	0	0	28	24	664	312	1	34	
11	0	0	0	0	28	24	659	312	1	34	
12	0	0	0	0	28	24	639	312	1	34	
13	0	0	0	0	28	24	620	312	1	34	
14	0	0	0	0	24	24	585	312	1	34	
15	0	0	0	0	31	28	550	312	1	34	
0	0	0	0	0	28	24	512	312	1	34	
1	0	0	0	0	31	28	478	312	1	34	
2	0	0	0	0	28	24	451	312	1	34	
3	0	0	0	0	28	24	433	312	1	34	
4	0	0	0	0	24	24	428	312	1	34	
5	0	0	0	0	28	24	432	312	1	34	
6	0	0	0	0	28	24	448	310	1	34	
7	0	0	0	0	31	28	473	310	1	34	
8	0	0	0	0	28	24	508	312	1	34	
9	0	0	0	0	31	28	543	310	1	34	
10	0	0	0	0	28	24	582	310	1	34	
11	0	0	0	0	24	24	615	312	1	34	
12	0	0	0	0	28	24	639	312	1	34	
13	0	0	0	0	28	24	664	312	1	34	
14	0	0	0	0	28	24	671	312	1	34	
15	0	0	0	0	31	28	668	312	1	34	
0	0	0	0	0	28	24	654	312	1	34	
1	0	0	0	0	31	28	627	312	1	34	
2	0	0	0	0	28	24	595	312	1	34	
3	0	0	0	0	31	24	560	312	1	34	
4	0	0	0	0	28	24	519	312	1	34	
5	0	0	0	0	28	24	487	312	1	34	
6	0	0	0	0	35	31	455	312	1	34	
7	0	0	0	0	28	24	440	312	1	34	
8	0	0	0	0	28	24	432	312	1	34	
9	0	0	0	0	31	28	433	312	1	34	
10	0	0	0	0	28	24	448	312	1	34	
11	0	0	0	0	28	24	472	312	1	34	
12	0	0	0	0	28	24	504	312	1	34	
13	0	0	0	0	28	24	540	312	1	34	
14	0	0	0	0	33	31	575	312	1	34	
15	0	0	0	0	28	24	608	312	1	34	
0	0	0	0	0	28	24	636	312	1	34	
1	0	0	0	0	31	28	655	312	1	34	
2	0	0	0	0	31	28	664	312	1	34	
3	0	0	0	0	28	24	659	312	1	34	
4	0	0	0	0	28	24	639	312	1	34	
5	0	0	0	0	28	24	620	312	1	34	
6	0	0	0	0	28	24	588	312	1	34	
7	0	0	0	0	28	24	551	312	1	34	
8	0	0	0	0	28	24	515	312	1	34	
9	0	0	0	0	24	24	480	312	1	34	
10	0	0	0	0	28	24	455	312	1	34	
11	0	0	0	0	31	28	435	312	1	34	
12	0	0	0	0	35	31	430	312	1	34	
13	0	0	0	0	28	24	433	312	1	34	
14	0	0	0	0	28	24	448	312	1	34	
15	0	0	0	0	31	28	476	312	1	34	
0	0	0	0	0	28	24	508	312	1	34	
1	0	0	0	0	31	28	543	312	1	34	
2	0	0	0	0	28	24	579	312	1	34	
3	0	0	0	0	28	24	615	312	1	34	
4	0	0	0	0	24	24	639	312	1	34	
5	0	0	0	0	28	24	664	312	1	34	
6	0	0	0	0	24	24	670	312	1	34	
7	0	0	0	0	28	24	668	312	1	34	
8	0	0	0	0	31	28	652	312	1	34	
9	0	0	0	0	31	28	624	312	1	34	
10	0	0	0	0	28	24	591	310	1	34	
11	0	0	0	0	28	24	551	312	1	34	
12	0	0	0	0	24	24	515	310	1	34	
13	0	0	0	0	28	24	480	310	1	34	
14	0	0	0	0	24	24	451	310	1	34	
15	0	0	0	0	24	24	432	310	1	34	
0	0	0	0	0	28	24	423	310	1	34	
1	0	0	0	0	24	24	428	310	1	34	
2	0	0	0	0	31	28	444	310	1	34	
3	0	0	0	0	28	24	468	312	1	34	
4	0	0	0	0	28	24	504	312	1	34	
5	0	0	0	0	28	24	540	312	1	34	
6	0	0	0	0	28	24	575	310	1	34	
7	0	0	0	0	31	28	611	310	1	34	
8	0	0	0	0	28	24	639	312	1	34	
9	0	0	0	0	28	24	659	312	1	34	
10	0	0	0	0	28	24	668	312	1	34	
11	0	0	0	0	35	31	664	312	1	34	
12	0	0	0	0	24	24	649	310	1	34	
13	0	0	0	0	28	24	624	310	1	34	
14	0	0	0	0	24	24	591	310	1	34	
15	0	0	0	0	28	24	556	310	1	34	
0	0	0	0	0	28	24	519	310	1	34	
1	0	0	0	0	35	31	483	310	1	34	
2	0	0	0	0	28	24	455	310	1	34	
3	0	0	0	0	28	24	440	310	1	34	
4	0	0	0	0	31	28	432	310	1	34	
5	0	0	0	0	31	28	435	310	1	34	
6	0	0	0	0	35	31	451	310	1	34	
7	0	0	0	0	28	24	476	312	1	34	
8	0	0	0	0	28	24	508	312	1	34	
9	0	0	0	0	28	24	543	312	1	34	
10	0	0	0	0	28	24	582	312	1	34	
11	0	0	0	0	31	28	615	312	1	34	
12	0	0	0	0	28	24	639	312	1	34	
13	0	0	0	0	28	24	659	312	1	34	
14	0	0	0	0	24	24	668	312	1	34	
15	0	0	0	0	28	24	664	312	1	34	
0	0	0	0	0	28	24	647	312	1	34	
1	0	0	0	0	35	31	624	312	1	34	
2	0	0	0	0	31	28	591	312	1	34	
3	0	0	0	0	28	24	553	312	1	34	
4	0	0	0	0	28	24	515	312	1	34	
5	0	0	0	0	28	24	483	312	1	34	
6	0	0	0	0	28	24	455	310	1	34	
7	0	0	0	0	28	24	440	312	1	34	
8	0	0	0	0	28	24	432	310	1	34	
9	0	0	0	0	25	24	438	312	1	34	
10	0	0	0	0	28	24	454	312	1	34	
11	0	0	0	0	24	24	480	312	1	34	
12	0	0	0	0	28	24	511	312	1	34	
13	0	0	0	0	24	24	547	312	1	34	
14	0	0	0	0	28	24	583	312	1	34	
15	0	0	0	0	31	28	615	312	1	34	
0	0	0	0	0	31	28	639	312	1	34	
1	0	0	0	0	31	28	659	312	1	34	
2	0	0	0	0	35	31	664	312	1	34	
3	0	0	0	0	31	28	662	312	1	34	
4	0	0	0	0	28	24	646	312	1	34	
5	0	0	0	0	28	24	620	312	1	34	
6	0	0	0	0	28	24	588	312	1	34	
7	0	0	0	0	28	22	551	312	1	34	
8	0	0	0	0	28	24	513	312	1	34	
9	0	0	0	0	28	24	480	312	1	34	
10	0	0	0	0	28	24	454	312	1	34	
11	0	0	0	0	28	24	435	312	1	34	
12	0	0	0	0	24	24	430	312	1	34	
13	0	0	0	0	31	28	433	312	1	34	
14	0	0	0	0	28	28	449	312	1	34	
15	0	0	0	0	28	24	476	312	1	34	
0	0	0	0	0	28	24	508	312	1	34	
1	0	0	0	0	31	28	543	312	1	34	
2	0	0	0	0	28	24	582	312	1	34	
3	0	0	0	0	28	24	615	312	1	34	
4	0	0	0	0	31	28	639	312	1	34	
5	0	0	0	0	24	24	659	312	1	34	
6	0	0	0	0	28	24	668	312	1	34	
7	0	0	0	0	24	24	664	312	1	34	
8	0	0	0	0	31	28	647	312	1	34	
9	0	0	0	0	28	24	622	312	1	34	
10	0	0	0	0	28	24	588	312	1	34	
11	0	0	0	0	24	24	551	312	1	34	
12	0	0	0	0	31	28	512	312	1	34	
13	0	0	0	0	28	24	480	310	1	34	
14	0	0	0	0	28	24	451	310	1	34	
15	0	0	0	0	31	28	432	310	1	34	
0	0	0	0	0	28	24	423	310	1	34	
1	0	0	0	0	28	24	432	310	1	34	
2	0	0	0	0	28	24	448	310	1	34	
3	0	0	0	0	28	24	473	312	1	34	
4	0	0	0	0	28	24	508	312	1	34	
5	0	0	0	0	31	28	543	312	1	34	
6	0	0	0	0	35	31	583	312	1	34	
7	0	0	0	0	24	24	615	312	1	34	
8	0	0	0	0	31	28	646	312	1	34	
9	0	0	0	0	28	24	664	312	1	34	
10	0	0	0	0	28	24	671	310	1	34	
11	0	0	0	0	28	24	668	310	1	34	
12	0	0	0	0	28	24	654	310	1	34	
13	0	0	0	0	31	28	627	310	1	34	
14	0	0	0	0	24	24	591	310	1	34	
15	0	0	0	0	24	24	556	310	1	34	
0	0	0	0	0	24	24	518	310	1	34	
1	0	0	0	0	31	28	481	310	1	34	
2	0	0	0	0	31	28	454	310	1	34	
3	0	0	0	0	28	24	433	310	1	34	
4	0	0	0	0	31	28	428	310	1	34	
5	0	0	0	0	35	31	432	310	1	34	
6	0	0	0	0	35	31	448	310	1	34	
7	0	0	0	0	28	24	472	310	1	34	
8	0	0	0	0	31	28	504	310	1	34	
9	0	0	0	0	24	24	540	310	1	34	
10	0	0	0	0	28	24	575	310	1	34	
11	0	0	0	0	31	28	611	310	1	34	
12	0	0	0	0	31	28	639	310	1	34	
13	0	0	0	0	31	28	659	310	1	34	
14	0	0	0	0	28	24	668	310	1	34	
15	0	0	0	0	31	28	664	310	1	34	
0	0	0	0	0	28	24	649	310	1	34	
1	0	0	0	0	28	24	625	312	1	34	
2	0	0	0	0	28	24	593	312	1	34	
3	0	0	0	0	28	24	560	312	1	34	
4	0	0	0	0	31	28	519	312	1	34	
5	0	0	0	0	31	28	487	312	1	34	
6	0	0	0	0	31	28	462	312	1	34	
7	0	0	0	0	31	28	444	312	1	34	
8	0	0	0	0	35	31	440	312	1	34	
9	0	0	0	0	28	24	444	312	1	34	
10	0	0	0	0	28	24	460	312	1	34	
11	0	0	0	0	28	24	483	310	1	34	
12	0	0	0	0	28	24	515	310	1	34	
13	0	0	0	0	31	28	550	312	1	34	
14	0	0	0	0	25	24	583	312	1	34	
15	0	0	0	0	24	24	615	312	1	34	
0	0	0	0	0	28	24	639	312	1	34	
1	0	0	0	0	31	28	655	312	1	34	
2	0	0	0	0	35	31	664	312	1	34	
3	0	0	0	0	35	31	655	312	1	34	
4	0	0	0	0	35	31	639	312	1	34	
5	0	0	0	0	28	24	615	312	1	34	
6	0	0	0	0	28	24	583	312	1	34	
7	0	0	0	0	28	24	543	312	1	34	
8	0	0	0	0	31	28	510	312	1	34	
9	0	0	0	0	28	24	476	312	1	34	
10	0	0	0	0	24	24	449	312	1	34	
11	0	0	0	0	31	28	433	312	1	34	
12	0	0	0	0	31	28	428	312	1	34	
13	0	0	0	0	28	24	433	312	1	34	
14	0	0	0	0	28	24	449	312	1	34	
15	0	0	0	0	31	28	476	312	1	34	
0	0	0	0	0	31	28	508	312	1	34	
1	0	0	0	0	28	24	543	312	1	34	
2	0	0	0	0	28	24	582	310	1	34	
3	0	0	0	0	28	24	615	310	1	34	
4	0	0	0	0	28	24	639	310	1	34	
5	0	0	0	0	31	28	659	310	1	34	
6	0	0	0	0	31	28	668	312	1	34	
7	0	0	0	0	35	31	664	310	1	34	
8	0	0	0	0	35	31	647	310	1	34	
9	0	0	0	0	28	24	624	310	1	34	
10	0	0	0	0	28	24	591	310	1	34	
11	0	0	0	0	28	22	556	310	1	34	
12	0	0	0	0	28	24	519	310	1	34	
13	0	0	0	0	31	28	483	310	1	34	
14	0	0	0	0	24	24	455	310	1	34	
15	0	0	0	0	24	24	440	310	1	34	
0	0	0	0	0	28	24	432	310	1	34	
1	0	0	0	0	31	28	436	310	1	34	
2	0	0	0	0	28	24	451	310	1	34	
3	0	0	0	0	31	28	478	310	1	34	
4	0	0	0	0	28	24	510	312	1	34	
5	0	0	0	0	28	24	543	312	1	34	
6	0	0	0	0	28	24	583	312	1	34	
7	0	0	0	0	31	28	615	312	1	34	
8	0	0	0	0	28	24	639	312	1	34	
9	0	0	0	0	28	24	664	312	1	34	
10	0	0	0	0	31	28	671	312	1	34	
11	0	0	0	0	31	28	671	312	1	34	
12	0	0	0	0	28	24	659	312	1	34	
13	0	0	0	0	28	24	639	312	1	34	
14	0	0	0	0	28	24	608	312	1	34	
15	0	0	0	0	28	24	572	312	1	34	
0	0	0	0	0	28	24	536	312	1	34	
1	0	0	0	0	28	24	499	312	1	34	
2	0	0	0	0	28	24	472	312	1	34	
3	0	0	0	0	24	24	449	312	1	34	
4	0	0	0	0	28	24	440	312	1	34	
5	0	0	0	0	31	28	440	312	1	34	
6	0	0	0	0	31	28	449	312	1	34	
7	0	0	0	0	28	24	472	312	1	34	
8	0	0	0	0	28	24	499	312	1	34	
9	0	0	0	0	31	28	534	312	1	34	
10	0	0	0	0	28	24	568	312	1	34	
11	0	0	0	0	28	24	600	312	1	34	
12	0	0	0	0	24	24	625	312	1	34	
13	0	0	0	0	28	24	639	312	1	34	
14	0	0	0	0	30	28	654	312	1	34	
15	0	0	0	0	28	24	652	312	1	34	
0	0	0	0	0	31	28	639	312	1	34	
1	0	0	0	0	35	31	615	312	1	34	
2	0	0	0	0	31	28	588	312	1	34	
3	0	0	0	0	24	24	553	312	1	34	
4	0	0	0	0	28	24	519	312	1	34	
5	0	0	0	0	31	28	492	312	1	34	
6	0	0	0	0	28	24	467	312	1	34	
7	0	0	0	0	31	28	452	312	1	34	
8	0	0	0	0	24	24	448	312	1	34	
9	0	0	0	0	27	24	455	312	1	34	
10	0	0	0	0	31	28	472	312	1	34	
11	0	0	0	0	31	28	497	310	1	34	
12	0	0	0	0	28	24	527	310	1	34	
13	0	0	0	0	31	28	563	312	1	34	
14	0	0	0	0	31	28	600	310	1	34	
15	0	0	0	0	31	28	632	312	1	34	
0	0	0	0	0	28	24	654	310	1	34	
1	0	0	0	0	31	28	670	310	1	34	
2	0	0	0	0	28	24	671	312	1	34	
3	0	0	0	0	28	24	668	312	1	34	
4	0	0	0	0	28	24	649	312	1	34	
5	0	0	0	0	28	24	622	312	1	34	
6	0	0	0	0	31	28	583	312	1	34	
7	0	0	0	0	24	24	547	310	1	34	
8	0	0	0	0	28	24	508	310	1	34	
9	0	0	0	0	24	24	472	310	1	34	
10	0	0	0	0	35	31	441	310	1	34	
11	0	0	0	0	28	24	423	310	1	34	
12	0	0	0	0	28	24	415	310	1	34	
13	0	0	0	0	31	28	422	310	1	34	
14	0	0	0	0	28	28	440	310	1	34	
15	0	0	0	0	31	28	465	310	1	34	
0	0	0	0	0	28	24	504	310	1	34	
1	0	0	0	0	31	28	543	310	1	34	
2	0	0	0	0	28	24	585	310	1	34	
3	0	0	0	0	28	24	625	310	1	34	
4	0	0	0	0	28	24	659	310	1	34	
5	0	0	0	0	28	24	684	310	1	34	
6	0	0	0	0	28	24	696	310	1	34	
7	0	0	0	0	28	24	696	312	1	34	
8	0	0	0	0	31	28	684	310	1	34	
9	0	0	0	0	25	24	657	310	1	34	
10	0	0	0	0	28	24	624	310	1	34	
11	0	0	0	0	31	28	583	312	1	34	
12	0	0	0	0	28	24	540	312	1	34	
13	0	0	0	0	31	28	497	310	1	34	
14	0	0	0	0	24	24	463	310	1	34	
15	0	0	0	0	28	24	440	310	1	34	
0	0	0	0	0	28	24	423	310	1	34	
1	0	0	0	0	31	28	423	310	1	34	
2	0	0	0	0	31	28	435	310	1	34	
3	0	0	0	0	31	28	455	310	1	34	
4	0	0	0	0	31	28	487	312	1	34	
5	0	0	0	0	28	24	524	312	1	34	
6	0	0	0	0	31	28	563	310	1	34	
7	0	0	0	0	31	28	600	310	1	34	
8	0	0	0	0	31	28	627	310	1	34	
9	0	0	0	0	28	24	647	310	1	34	
10	0	0	0	0	31	28	659	310	1	34	
11	0	0	0	0	28	24	660	310	1	34	
12	0	0	0	0	28	24	649	310	1	34	
13	0	0	0	0	28	24	630	312	1	34	
14	0	0	0	0	24	24	600	312	1	34	
15	0	0	0	0	28	22	568	312	1	34	
0	0	0	0	0	24	24	536	312	1	34	
1	0	0	0	0	31	28	505	312	1	34	
2	0	0	0	0	24	24	483	312	1	34	
3	0	0	0	0	28	24	468	312	1	34	
4	0	0	0	0	28	24	463	312	1	34	
5	0	0	0	0	24	24	467	312	1	34	
6	0	0	0	0	28	24	481	312	1	34	
7	0	0	0	0	28	24	504	312	1	34	
8	0	0	0	0	28	24	531	312	1	34	
9	0	0	0	0	31	28	561	312	1	34	
10	0	0	0	0	35	31	591	312	1	34	
11	0	0	0	0	31	28	620	312	1	34	
12	0	0	0	0	28	24	639	312	1	34	
13	0	0	0	0	28	24	655	312	1	34	
14	0	0	0	0	28	24	659	312	1	34	
15	0	0	0	0	28	24	652	312	1	34	
0	0	0	0	0	28	24	633	312	1	34	
1	0	0	0	0	28	24	608	312	1	34	
2	0	0	0	0	28	24	572	312	1	34	
3	0	0	0	0	31	28	536	310	1	34	
4	0	0	0	0	31	28	496	312	1	34	
5	0	0	0	0	28	24	463	310	1	34	
6	0	0	0	0	31	28	435	310	1	34	
7	0	0	0	0	28	24	415	310	1	34	
8	0	0	0	0	35	31	412	310	1	34	
9	0	0	0	0	31	28	415	310	1	34	
10	0	0	0	0	28	24	435	310	1	34	
11	0	0	0	0	31	28	463	310	1	34	
12	0	0	0	0	28	24	496	310	1	34	
13	0	0	0	0	28	24	536	310	1	34	
14	0	0	0	0	24	24	575	310	1	34	
15	0	0	0	0	28	24	615	310	1	34	
0	0	0	0	0	28	24	647	310	1	34	
1	0	0	0	0	35	31	670	310	1	34	
2	0	0	0	0	31	28	679	310	1	34	
3	0	0	0	0	28	24	679	310	1	34	
4	0	0	0	0	31	28	668	312	1	34	
5	0	0	0	0	28	24	646	312	1	34	
6	0	0	0	0	31	28	611	312	1	34	
7	0	0	0	0	28	24	575	312	1	34	
8	0	0	0	0	28	24	536	312	1	34	
9	0	0	0	0	28	24	496	312	1	34	
10	0	0	0	0	31	28	463	312	1	34	
11	0	0	0	0	35	31	440	312	1	34	
12	0	0	0	0	28	24	428	312	1	34	
13	0	0	0	0	28	24	430	312	1	34	
14	0	0	0	0	28	24	440	312	1	34	
15	0	0	0	0	31	28	463	312	1	34	
0	0	0	0	0	28	24	494	312	1	34	
1	0	0	0	0	28	24	527	312	1	34	
2	0	0	0	0	28	24	563	312	1	34	
3	0	0	0	0	28	24	600	312	1	34	
4	0	0	0	0	28	24	627	312	1	34	
5	0	0	0	0	28	24	647	312	1	34	
6	0	0	0	0	31	28	657	312	1	34	
7	0	0	0	0	28	24	655	312	1	34	
8	0	0	0	0	28	24	647	312	1	34	
9	0	0	0	0	28	24	625	312	1	34	
10	0	0	0	0	28	24	600	310	1	34	
11	0	0	0	0	28	24	568	310	1	34	
12	0	0	0	0	31	28	536	310	1	34	
13	0	0	0	0	28	24	508	310	1	34	
14	0	0	0	0	28	28	486	310	1	34	
15	0	0	0	0	28	24	472	312	1	34	
0	0	0	0	0	28	24	463	312	1	34	
1	0	0	0	0	31	28	470	310	1	34	
2	0	0	0	0	28	24	483	310	1	34	
3	0	0	0	0	28	24	504	310	1	34	
4	0	0	0	0	28	24	531	310	1	34	
5	0	0	0	0	24	24	561	310	1	34	
6	0	0	0	0	28	24	591	310	1	34	
7	0	0	0	0	28	24	620	310	1	34	
8	0	0	0	0	28	24	639	310	1	34	
9	0	0	0	0	25	24	655	310	1	34	
10	0	0	0	0	31	28	657	312	1	34	
11	0	0	0	0	31	28	652	312	1	34	
12	0	0	0	0	28	24	636	312	1	34	
13	0	0	0	0	28	24	608	312	1	34	
14	0	0	0	0	28	24	575	312	1	34	
15	0	0	0	0	35	31	540	312	1	34	
0	0	0	0	0	28	24	504	312	1	34	
1	0	0	0	0	28	24	470	312	1	34	
2	0	0	0	0	31	28	444	312	1	34	
3	0	0	0	0	31	28	428	312	1	34	
4	0	0	0	0	31	28	423	312	1	34	
5	0	0	0	0	28	24	432	310	1	34	
6	0	0	0	0	31	28	451	312	1	34	
7	0	0	0	0	31	28	480	312	1	34	
8	0	0	0	0	31	28	515	312	1	34	
9	0	0	0	0	31	28	553	312	1	34	
10	0	0	0	0	31	28	591	312	1	34	
11	0	0	0	0	28	24	627	312	1	34	
12	0	0	0	0	35	31	655	312	1	34	
13	0	0	0	0	28	24	671	312	1	34	
14	0	0	0	0	24	24	679	312	1	34	
15	0	0	0	0	28	24	671	312	1	34	
0	0	0	0	0	31	28	655	312	1	34	
1	0	0	0	0	35	31	625	312	1	34	
2	0	0	0	0	31	28	591	312	1	34	
3	0	0	0	0	24	22	551	312	1	34	
4	0	0	0	0	28	24	513	312	1	34	
5	0	0	0	0	28	24	480	312	1	34	
6	0	0	0	0	28	24	455	312	1	34	
7	0	0	0	0	28	24	440	312	1	34	
8	0	0	0	0	35	31	435	312	1	34	
9	0	0	0	0	28	24	448	312	1	34	
10	0	0	0	0	28	24	467	312	1	34	
11	0	0	0	0	31	28	499	312	1	34	
12	0	0	0	0	28	24	537	312	1	34	
13	0	0	0	0	28	24	579	312	1	34	
14	0	0	0	0	28	24	624	312	1	34	
15	0	0	0	0	28	24	660	312	1	34	
0	0	0	0	0	28	24	689	312	1	34	
1	0	0	0	0	31	28	710	312	1	34	
2	0	0	0	0	28	24	716	312	1	34	
3	0	0	0	0	19	28	710	310	1	34	
4	0	0	0	0	28	24	688	310	1	34	
5	0	0	0	0	35	31	655	312	1	34	
6	0	0	0	0	31	28	615	312	1	34	
7	0	0	0	0	28	24	572	312	1	34	
8	0	0	0	0	28	24	527	312	1	34	
9	0	0	0	0	31	28	486	312	1	34	
10	0	0	0	0	24	24	451	312	1	34	
11	0	0	0	0	28	24	430	312	1	34	
12	0	0	0	0	35	31	419	312	1	34	
13	0	0	0	0	28	24	423	312	1	34	
14	0	0	0	0	24	24	440	312	1	34	
15	0	0	0	0	28	24	467	312	1	34	
0	0	0	0	0	35	31	499	312	1	34	
1	0	0	0	0	24	24	540	312	1	34	
2	0	0	0	0	31	28	575	312	1	34	
3	0	0	0	0	28	24	611	312	1	34	
4	0	0	0	0	28	24	639	312	1	34	
5	0	0	0	0	28	24	662	312	1	34	
6	0	0	0	0	28	24	671	312	1	34	
7	0	0	0	0	31	28	670	312	1	34	
8	0	0	0	0	28	24	655	312	1	34	
9	0	0	0	0	28	24	636	312	1	34	
10	0	0	0	0	28	24	606	312	1	34	
11	0	0	0	0	31	28	572	310	1	34	
12	0	0	0	0	28	24	536	312	1	34	
13	0	0	0	0	31	28	504	312	1	34	
14	0	0	0	0	28	24	480	310	1	34	
15	0	0	0	0	28	24	465	310	1	34	
0	0	0	0	0	28	24	463	310	1	34	
1	0	0	0	0	28	24	472	310	1	34	
2	0	0	0	0	28	24	492	310	1	34	
3	0	0	0	0	28	24	519	310	1	34	
4	0	0	0	0	31	28	556	310	1	34	
5	0	0	0	0	31	28	591	310	1	34	
6	0	0	0	0	31	28	632	310	1	34	
7	0	0	0	0	28	24	659	310	1	34	
8	0	0	0	0	28	24	679	310	1	34	
9	0	0	0	0	28	24	691	310	1	34	
10	0	0	0	0	28	24	688	310	1	34	
11	0	0	0	0	31	28	671	310	1	34	
12	0	0	0	0	28	24	647	310	1	34	
13	0	0	0	0	28	24	611	310	1	34	
14	0	0	0	0	24	24	568	310	1	34	
15	0	0	0	0	28	24	521	310	1	34	
0	0	0	0	0	28	24	478	310	1	34	
1	0	0	0	0	35	31	438	310	1	34	
2	0	0	0	0	24	24	408	310	1	34	
3	0	0	0	0	28	24	390	310	1	34	
4	0	0	0	0	24	24	384	310	1	34	
5	0	0	0	0	28	24	391	310	1	34	
6	0	0	0	0	24	24	415	312	1	34	
7	0	0	0	0	28	24	448	310	1	34	
8	0	0	0	0	24	24	489	310	1	34	
9	0	0	0	0	28	24	536	310	1	34	
10	0	0	0	0	28	24	583	310	1	34	
11	0	0	0	0	35	31	625	312	1	34	
12	0	0	0	0	31	28	664	312	1	34	
13	0	0	0	0	24	24	691	312	1	34	
14	0	0	0	0	28	24	707	312	1	34	
15	0	0	0	0	28	24	711	312	1	34	
0	0	0	0	0	28	24	704	312	1	34	
1	0	0	0	0	28	24	679	312	1	34	
2	0	0	0	0	28	24	646	312	1	34	
3	0	0	0	0	19	28	606	312	1	34	
4	0	0	0	0	31	28	561	312	1	34	
5	0	0	0	0	28	24	519	312	1	34	
6	0	0	0	0	35	31	480	310	1	34	
7	0	0	0	0	28	24	451	310	1	34	
8	0	0	0	0	28	24	433	310	1	34	
9	0	0	0	0	28	24	428	310	1	34	
10	0	0	0	0	28	24	435	310	1	34	
11	0	0	0	0	24	24	455	310	1	34	
12	0	0	0	0	28	24	483	310	1	34	
13	0	0	0	0	28	24	519	312	1	34	
14	0	0	0	0	22	24	556	312	1	34	
15	0	0	0	0	31	28	593	312	1	34	
0	0	0	0	0	28	24	627	312	1	34	
1	0	0	0	0	24	24	655	310	1	34	
2	0	0	0	0	28	24	675	312	1	34	
3	0	0	0	0	24	24	686	312	1	34	
4	0	0	0	0	28	24	686	310	1	34	
5	0	0	0	0	31	28	671	312	1	34	
6	0	0	0	0	28	24	655	312	1	34	
7	0	0	0	0	28	22	625	312	1	34	
8	0	0	0	0	28	25	591	312	1	34	
9	0	0	0	0	31	28	556	312	1	34	
10	0	0	0	0	35	31	519	312	1	34	
11	0	0	0	0	31	28	492	310	1	34	
12	0	0	0	0	31	28	470	310	1	34	
13	0	0	0	0	31	28	455	312	1	34	
14	0	0	0	0	28	24	455	312	1	34	
15	0	0	0	0	31	28	467	312	1	34	
0	0	0	0	0	28	24	487	312	1	34	
1	0	0	0	0	31	28	513	312	1	34	
2	0	0	0	0	28	24	543	312	1	34	
3	0	0	0	0	24	24	575	312	1	34	
4	0	0	0	0	24	24	611	312	1	34	
5	0	0	0	0	28	24	636	312	1	34	
6	0	0	0	0	31	28	652	312	1	34	
7	0	0	0	0	28	24	657	312	1	34	
8	0	0	0	0	28	24	652	312	1	34	
9	0	0	0	0	28	24	636	312	1	34	
10	0	0	0	0	35	31	608	312	1	34	
11	0	0	0	0	28	24	575	312	1	34	
12	0	0	0	0	28	24	542	312	1	34	
13	0	0	0	0	28	24	508	312	1	34	
14	0	0	0	0	24	24	481	312	1	34	
15	0	0	0	0	28	24	465	312	1	34	
0	0	0	0	0	31	28	462	312	1	34	
1	0	0	0	0	31	28	472	312	1	34	
2	0	0	0	0	31	28	487	312	1	34	
3	0	0	0	0	35	31	519	312	1	34	
4	0	0	0	0	28	24	551	312	1	34	
5	0	0	0	0	28	24	590	312	1	34	
6	0	0	0	0	28	24	624	312	1	34	
7	0	0	0	0	28	24	652	312	1	34	
8	0	0	0	0	28	24	671	312	1	34	
9	0	0	0	0	28	24	679	312	1	34	
10	0	0	0	0	28	24	679	312	1	34	
11	0	0	0	0	35	31	664	312	1	34	
12	0	0	0	0	24	24	639	312	1	34	
13	0	0	0	0	28	24	608	312	1	34	
14	0	0	0	0	28	24	568	312	1	34	
15	0	0	0	0	28	24	526	312	1	34	
0	0	0	0	0	28	24	487	312	1	34	
1	0	0	0	0	28	24	451	312	1	34	
2	0	0	0	0	24	24	428	312	1	34	
3	0	0	0	0	28	24	412	312	1	34	
4	0	0	0	0	24	24	409	312	1	34	
5	0	0	0	0	28	24	419	312	1	34	
6	0	0	0	0	24	24	444	312	1	34	
7	0	0	0	0	28	24	476	312	1	34	
8	0	0	0	0	31	28	518	312	1	34	
9	0	0	0	0	31	28	564	312	1	34	
10	0	0	0	0	28	24	615	312	1	34	
11	0	0	0	0	28	24	662	312	1	34	
12	0	0	0	0	28	24	704	312	1	34	
13	0	0	0	0	35	31	729	312	1	34	
14	0	0	0	0	24	24	748	312	1	34	
15	0	0	0	0	28	24	748	312	1	34	
0	0	0	0	0	28	24	736	312	1	34	
1	0	0	0	0	24	24	704	312	1	34	
2	0	0	0	0	28	24	664	312	1	34	
3	0	0	0	0	28	24	615	312	1	34	
4	0	0	0	0	28	24	566	312	1	34	
5	0	0	0	0	31	28	513	312	1	34	
6	0	0	0	0	28	24	468	312	1	34	
7	0	0	0	0	31	28	432	312	1	34	
8	0	0	0	0	31	28	409	312	1	34	
9	0	0	0	0	25	24	399	312	1	34	
10	0	0	0	0	28	24	408	312	1	34	
11	0	0	0	0	31	28	428	312	1	34	
12	0	0	0	0	31	28	460	310	1	34	
13	0	0	0	0	28	24	499	310	1	34	
14	0	0	0	0	24	24	543	312	1	34	
15	0	0	0	0	28	24	590	312	1	34	
0	0	0	0	0	28	24	632	310	1	34	
1	0	0	0	0	28	24	664	310	1	34	
2	0	0	0	0	31	28	688	310	1	34	
3	0	0	0	0	31	28	700	312	1	34	
4	0	0	0	0	28	24	696	312	1	34	
5	0	0	0	0	31	28	678	310	1	34	
6	0	0	0	0	31	28	647	310	1	34	
7	0	0	0	0	28	24	608	310	1	34	
8	0	0	0	0	24	24	561	310	1	34	
9	0	0	0	0	31	28	518	310	1	34	
10	0	0	0	0	31	28	480	310	1	34	
11	0	0	0	0	28	24	448	310	1	34	
12	0	0	0	0	31	28	432	310	1	34	
13	0	0	0	0	31	28	428	310	1	34	
14	0	0	0	0	30	28	440	310	1	34	
15	0	0	0	0	28	24	462	310	1	34	
0	0	0	0	0	31	28	494	310	1	34	
1	0	0	0	0	35	31	529	312	1	34	
2	0	0	0	0	28	24	568	310	1	34	
3	0	0	0	0	28	24	600	312	1	34	
4	0	0	0	0	24	24	628	312	1	34	
5	0	0	0	0	28	24	647	312	1	34	
6	0	0	0	0	28	24	655	312	1	34	
7	0	0	0	0	31	28	654	310	1	34	
8	0	0	0	0	31	28	639	310	1	34	
9	0	0	0	0	31	28	622	310	1	34	
10	0	0	0	0	28	24	595	310	1	34	
11	0	0	0	0	24	22	566	310	1	34	
12	0	0	0	0	31	28	536	310	1	34	
13	0	0	0	0	28	24	508	310	1	34	
14	0	0	0	0	31	28	483	310	1	34	
15	0	0	0	0	28	24	467	310	1	34	
0	0	0	0	0	28	24	460	310	1	34	
1	0	0	0	0	28	24	463	310	1	34	
2	0	0	0	0	28	24	480	310	1	34	
3	0	0	0	0	31	28	508	310	1	34	
4	0	0	0	0	35	31	543	310	1	34	
5	0	0	0	0	31	28	591	312	1	34	
6	0	0	0	0	31	28	639	312	1	34	
7	0	0	0	0	31	28	688	312	1	34	
8	0	0	0	0	28	24	732	312	1	34	
9	0	0	0	0	28	24	768	312	1	34	
10	0	0	0	0	28	24	787	312	1	34	
11	0	0	0	0	24	24	792	312	1	34	
12	0	0	0	0	28	24	780	312	1	34	
13	0	0	0	0	28	24	750	312	1	34	
14	0	0	0	0	24	24	704	312	1	34	
15	0	0	0	0	31	28	639	312	1	34	
0	0	0	0	0	28	24	575	312	1	34	
1	0	0	0	0	35	31	511	312	1	34	
2	0	0	0	0	28	24	452	312	1	34	
3	0	0	0	0	28	24	403	312	1	34	
4	0	0	0	0	28	24	368	310	1	34	
5	0	0	0	0	28	24	352	310	1	34	
6	0	0	0	0	24	24	352	310	1	34	
7	0	0	0	0	28	24	369	310	1	34	
8	0	0	0	0	28	24	406	312	1	34	
9	0	0	0	0	28	24	455	312	1	34	
10	0	0	0	0	28	24	512	312	1	34	
11	0	0	0	0	24	24	575	310	1	34	
12	0	0	0	0	28	24	632	310	1	34	
13	0	0	0	0	28	24	686	312	1	34	
14	0	0	0	0	28	24	728	312	1	34	
15	0	0	0	0	28	24	755	312	1	34	
0	0	0	0	0	28	24	768	312	1	34	
1	0	0	0	0	35	31	768	312	1	34	
2	0	0	0	0	28	24	748	312	1	34	
3	0	0	0	0	28	24	719	312	1	34	
4	0	0	0	0	28	24	681	312	1	34	
5	0	0	0	0	28	24	639	312	1	34	
6	0	0	0	0	35	31	600	312	1	34	
7	0	0	0	0	28	24	563	312	1	34	
8	0	0	0	0	28	24	536	312	1	34	
9	0	0	0	0	28	24	515	312	1	34	
10	0	0	0	0	31	28	504	312	1	34	
11	0	0	0	0	28	24	508	312	1	34	
12	0	0	0	0	28	24	519	312	1	34	
13	0	0	0	0	28	24	537	312	1	34	
14	0	0	0	0	28	28	561	312	1	34	
15	0	0	0	0	35	31	590	312	1	34	
0	0	0	0	0	31	28	615	312	1	34	
1	0	0	0	0	31	28	636	312	1	34	
2	0	0	0	0	28	24	646	312	1	34	
3	0	0	0	0	28	24	646	312	1	34	
4	0	0	0	0	28	24	633	312	1	34	
5	0	0	0	0	24	24	609	312	1	34	
6	0	0	0	0	28	24	575	312	1	34	
7	0	0	0	0	35	31	536	312	1	34	
8	0	0	0	0	28	24	496	312	1	34	
9	0	0	0	0	25	24	455	312	1	34	
10	0	0	0	0	35	31	419	312	1	34	
11	0	0	0	0	31	28	396	312	1	34	
12	0	0	0	0	28	24	384	312	1	34	
13	0	0	0	0	28	24	387	312	1	34	
14	0	0	0	0	31	28	408	312	1	34	
15	0	0	0	0	28	24	435	312	1	34	
0	0	0	0	0	28	24	478	312	1	34	
1	0	0	0	0	31	28	524	312	1	34	
2	0	0	0	0	28	24	575	312	1	34	
3	0	0	0	0	28	24	630	312	1	34	
4	0	0	0	0	31	28	679	312	1	34	
5	0	0	0	0	28	24	723	312	1	34	
6	0	0	0	0	24	24	760	312	1	34	
7	0	0	0	0	28	24	780	312	1	34	
8	0	0	0	0	28	24	783	312	1	34	
9	0	0	0	0	28	24	769	312	1	34	
10	0	0	0	0	28	24	737	312	1	34	
11	0	0	0	0	28	24	691	312	1	34	
12	0	0	0	0	28	24	632	312	1	34	
13	0	0	0	0	28	24	572	312	1	34	
14	0	0	0	0	35	31	511	312	1	34	
15	0	0	0	0	31	28	455	310	1	34	
0	0	0	0	0	28	24	415	310	1	34	
1	0	0	0	0	31	28	390	310	1	34	
2	0	0	0	0	28	24	384	310	1	34	
3	0	0	0	0	31	28	387	312	1	34	
4	0	0	0	0	31	28	408	310	1	34	
5	0	0	0	0	28	24	441	310	1	34	
6	0	0	0	0	28	24	483	310	1	34	
7	0	0	0	0	35	31	527	310	1	34	
8	0	0	0	0	28	24	575	312	1	34	
9	0	0	0	0	28	24	615	312	1	34	
10	0	0	0	0	28	24	647	312	1	34	
11	0	0	0	0	35	31	671	312	1	34	
12	0	0	0	0	28	24	679	312	1	34	
13	0	0	0	0	35	31	675	312	1	34	
14	0	0	0	0	28	24	660	312	1	34	
15	0	0	0	0	28	22	636	312	1	34	
0	0	0	0	0	31	28	600	312	1	34	
1	0	0	0	0	24	24	568	310	1	34	
2	0	0	0	0	28	24	536	310	1	34	
3	0	0	0	0	35	31	508	310	1	34	
4	0	0	0	0	28	24	492	310	1	34	
5	0	0	0	0	28	24	487	312	1	34	
6	0	0	0	0	35	31	496	310	1	34	
7	0	0	0	0	28	24	518	310	1	34	
8	0	0	0	0	31	28	547	310	1	34	
9	0	0	0	0	31	28	583	310	1	34	
10	0	0	0	0	24	24	624	312	1	34	
11	0	0	0	0	31	28	655	310	1	34	
12	0	0	0	0	35	31	684	310	1	34	
13	0	0	0	0	28	24	704	310	1	34	
14	0	0	0	0	28	28	705	312	1	34	
15	0	0	0	0	28	24	697	312	1	34	
0	0	0	0	0	31	28	675	312	1	34	
1	0	0	0	0	35	31	639	312	1	34	
2	0	0	0	0	28	24	601	312	1	34	
3	0	0	0	0	28	24	558	310	1	34	
4	0	0	0	0	28	24	515	310	1	34	
5	0	0	0	0	28	24	478	310	1	34	
6	0	0	0	0	31	28	448	310	1	34	
7	0	0	0	0	28	24	430	310	1	34	
8	0	0	0	0	28	24	423	310	1	34	
9	0	0	0	0	31	28	432	310	1	34	
10	0	0	0	0	28	24	454	310	1	34	
11	0	0	0	0	35	31	483	312	1	34	
12	0	0	0	0	28	24	524	312	1	34	
13	0	0	0	0	24	24	569	312	1	34	
14	0	0	0	0	28	24	615	312	1	34	
15	0	0	0	0	28	24	664	312	1	34	
0	0	0	0	0	24	24	704	312	1	34	
1	0	0	0	0	28	24	736	312	1	34	
2	0	0	0	0	24	24	753	312	1	34	
3	0	0	0	0	28	24	756	312	1	34	
4	0	0	0	0	24	24	743	312	1	34	
5	0	0	0	0	28	24	711	312	1	34	
6	0	0	0	0	31	28	668	312	1	34	
7	0	0	0	0	28	24	615	312	1	34	
8	0	0	0	0	28	24	558	312	1	34	
9	0	0	0	0	31	28	502	310	1	34	
10	0	0	0	0	28	24	451	312	1	34	
11	0	0	0	0	24	24	414	310	1	34	
12	0	0	0	0	28	24	391	312	1	34	
13	0	0	0	0	35	31	384	312	1	34	
14	0	0	0	0	28	24	391	312	1	34	
15	0	0	0	0	28	24	415	312	1	34	
0	0	0	0	0	28	24	455	312	1	34	
1	0	0	0	0	31	28	504	312	1	34	
2	0	0	0	0	31	28	556	312	1	34	
3	0	0	0	0	31	28	608	312	1	34	
4	0	0	0	0	28	24	655	312	1	34	
5	0	0	0	0	28	24	696	312	1	34	
6	0	0	0	0	28	24	728	312	1	34	
7	0	0	0	0	28	24	742	312	1	34	
8	0	0	0	0	31	28	743	312	1	34	
9	0	0	0	0	28	24	728	312	1	34	
10	0	0	0	0	35	31	704	312	1	34	
11	0	0	0	0	35	31	664	312	1	34	
12	0	0	0	0	28	24	615	312	1	34	
13	0	0	0	0	28	24	568	312	1	34	
14	0	0	0	0	31	28	519	312	1	34	
15	0	0	0	0	24	24	480	312	1	34	
0	0	0	0	0	28	24	448	312	1	34	
1	0	0	0	0	35	31	432	312	1	34	
2	0	0	0	0	28	24	432	312	1	34	
3	0	0	0	0	28	24	444	312	1	34	
4	0	0	0	0	31	28	470	312	1	34	
5	0	0	0	0	31	28	504	312	1	34	
6	0	0	0	0	35	31	543	312	1	34	
7	0	0	0	0	28	24	583	312	1	34	
8	0	0	0	0	28	24	624	312	1	34	
9	0	0	0	0	28	24	654	312	1	34	
10	0	0	0	0	35	31	675	312	1	34	
11	0	0	0	0	24	24	688	312	1	34	
12	0	0	0	0	28	24	688	312	1	34	
13	0	0	0	0	28	24	684	312	1	34	
14	0	0	0	0	28	28	670	312	1	34	
15	0	0	0	0	31	28	652	312	1	34	
0	0	0	0	0	28	24	627	312	1	34	
1	0	0	0	0	31	28	601	312	1	34	
2	0	0	0	0	28	24	575	312	1	34	
3	0	0	0	0	24	24	551	312	1	34	
4	0	0	0	0	28	24	536	312	1	34	
5	0	0	0	0	35	31	519	312	1	34	
6	0	0	0	0	28	24	515	312	1	34	
7	0	0	0	0	28	24	518	312	1	34	
8	0	0	0	0	28	24	527	312	1	34	
9	0	0	0	0	31	28	543	312	1	34	
10	0	0	0	0	28	24	568	312	1	34	
11	0	0	0	0	31	28	591	312	1	34	
12	0	0	0	0	28	24	615	312	1	34	
13	0	0	0	0	28	24	636	312	1	34	
14	0	0	0	0	31	28	649	312	1	34	
15	0	0	0	0	24	24	655	312	1	34	
0	0	0	0	0	28	24	655	312	1	34	
1	0	0	0	0	24	24	639	312	1	34	
2	0	0	0	0	28	24	624	312	1	34	
3	0	0	0	0	28	28	598	312	1	34	
4	0	0	0	0	28	24	563	312	1	34	
5	0	0	0	0	31	28	527	312	1	34	
6	0	0	0	0	31	28	496	312	1	34	
7	0	0	0	0	28	24	467	312	1	34	
8	0	0	0	0	31	28	448	312	1	34	
9	0	0	0	0	31	28	433	312	1	34	
10	0	0	0	0	31	28	433	312	1	34	
11	0	0	0	0	28	24	448	312	1	34	
12	0	0	0	0	31	28	467	312	1	34	
13	0	0	0	0	28	24	496	312	1	34	
14	0	0	0	0	24	24	531	312	1	34	
15	0	0	0	0	35	31	568	312	1	34	
0	0	0	0	0	28	24	600	312	1	34	
1	0	0	0	0	35	31	632	312	1	34	
2	0	0	0	0	28	24	647	312	1	34	
3	0	0	0	0	31	28	657	312	1	34	
4	0	0	0	0	28	24	655	312	1	34	
5	0	0	0	0	31	28	639	312	1	34	
6	0	0	0	0	28	24	624	312	1	34	
7	0	0	0	0	28	24	595	312	1	34	
8	0	0	0	0	24	24	566	312	1	34	
9	0	0	0	0	28	24	536	312	1	34	
10	0	0	0	0	28	24	508	312	1	34	
11	0	0	0	0	35	31	487	312	1	34	
12	0	0	0	0	28	24	480	312	1	34	
13	0	0	0	0	31	28	483	312	1	34	
14	0	0	0	0	28	24	504	312	1	34	
15	0	0	0	0	31	28	534	312	1	34	
0	0	0	0	0	28	24	575	312	1	34	
1	0	0	0	0	31	28	624	312	1	34	
2	0	0	0	0	28	24	671	312	1	34	
3	0	0	0	0	31	28	718	312	1	34	
4	0	0	0	0	28	24	752	312	1	34	
5	0	0	0	0	28	24	771	312	1	34	
6	0	0	0	0	35	31	771	312	1	34	
7	0	0	0	0	28	24	755	312	1	34	
8	0	0	0	0	31	28	721	312	1	34	
9	0	0	0	0	28	24	671	312	1	34	
10	0	0	0	0	31	28	615	312	1	34	
11	0	0	0	0	28	24	551	312	1	34	
12	0	0	0	0	24	24	487	312	1	34	
13	0	0	0	0	35	31	433	312	1	34	
14	0	0	0	0	24	24	391	312	1	34	
15	0	0	0	0	31	28	364	312	1	34	
0	0	0	0	0	28	24	353	312	1	34	
1	0	0	0	0	28	24	359	312	1	34	
2	0	0	0	0	28	24	385	312	1	34	
3	0	0	0	0	28	24	423	312	1	34	
4	0	0	0	0	31	28	467	312	1	34	
5	0	0	0	0	28	24	519	312	1	34	
6	0	0	0	0	28	24	568	312	1	34	
7	0	0	0	0	24	24	614	312	1	34	
8	0	0	0	0	28	24	649	312	1	34	
9	0	0	0	0	28	24	675	312	1	34	
10	0	0	0	0	31	28	688	312	1	34	
11	0	0	0	0	35	31	688	312	1	34	
12	0	0	0	0	28	24	671	312	1	34	
13	0	0	0	0	24	24	647	312	1	34	
14	0	0	0	0	28	24	609	312	1	34	
15	0	0	0	0	28	24	568	312	1	34	
0	0	0	0	0	28	24	521	312	1	34	
1	0	0	0	0	28	24	480	312	1	34	
2	0	0	0	0	31	28	441	310	1	34	
3	0	0	0	0	35	31	415	312	1	34	
4	0	0	0	0	28	24	403	310	1	34	
5	0	0	0	0	28	24	403	310	1	34	
6	0	0	0	0	35	31	419	312	1	34	
7	0	0	0	0	31	28	448	310	1	34	
8	0	0	0	0	28	24	487	312	1	34	
9	0	0	0	0	24	24	529	310	1	34	
10	0	0	0	0	28	24	575	310	1	34	
11	0	0	0	0	28	24	620	312	1	34	
12	0	0	0	0	28	24	655	310	1	34	
13	0	0	0	0	28	24	684	310	1	34	
14	0	0	0	0	30	28	696	310	1	34	
15	0	0	0	0	28	24	696	310	1	34	
0	0	0	0	0	28	24	684	310	1	34	
1	0	0	0	0	31	28	655	310	1	34	
2	0	0	0	0	28	24	620	310	1	34	
3	0	0	0	0	35	31	575	310	1	34	
4	0	0	0	0	28	24	531	310	1	34	
5	0	0	0	0	28	24	492	310	1	34	
6	0	0	0	0	28	24	460	310	1	34	
7	0	0	0	0	31	28	435	310	1	34	
8	0	0	0	0	31	28	427	310	1	34	
9	0	0	0	0	28	24	430	310	1	34	
10	0	0	0	0	28	24	444	310	1	34	
11	0	0	0	0	31	28	472	310	1	34	
12	0	0	0	0	28	24	504	310	1	34	
13	0	0	0	0	28	24	543	310	1	34	
14	0	0	0	0	28	24	583	310	1	34	
15	0	0	0	0	31	28	622	310	1	34	
0	0	0	0	0	28	24	655	312	1	34	
1	0	0	0	0	31	28	679	312	1	34	
2	0	0	0	0	28	24	691	310	1	34	
3	0	0	0	0	31	28	691	312	1	34	
4	0	0	0	0	28	24	679	312	1	34	
5	0	0	0	0	28	24	655	312	1	34	
6	0	0	0	0	31	28	620	312	1	34	
7	0	0	0	0	28	22	575	312	1	34	
8	0	0	0	0	28	24	536	312	1	34	
9	0	0	0	0	31	28	496	312	1	34	
10	0	0	0	0	31	28	463	312	1	34	
11	0	0	0	0	28	24	440	312	1	34	
12	0	0	0	0	28	24	430	312	1	34	
13	0	0	0	0	28	24	432	312	1	34	
14	0	0	0	0	20	24	448	312	1	34	
15	0	0	0	0	28	24	473	312	1	34	
0	0	0	0	0	31	28	508	312	1	34	
1	0	0	0	0	28	24	547	312	1	34	
2	0	0	0	0	31	28	583	312	1	34	
3	0	0	0	0	31	28	620	312	1	34	
4	0	0	0	0	28	24	647	312	1	34	
5	0	0	0	0	28	24	664	312	1	34	
6	0	0	0	0	28	24	671	312	1	34	
7	0	0	0	0	28	24	668	312	1	34	
8	0	0	0	0	28	24	649	312	1	34	
9	0	0	0	0	31	28	624	312	1	34	
10	0	0	0	0	28	24	588	312	1	34	
11	0	0	0	0	24	24	547	312	1	34	
12	0	0	0	0	28	24	508	312	1	34	
13	0	0	0	0	31	28	472	312	1	34	
14	0	0	0	0	31	28	440	312	1	34	
15	0	0	0	0	31	28	419	312	1	34	
0	0	0	0	0	24	24	412	312	1	34	
1	0	0	0	0	28	24	415	312	1	34	
2	0	0	0	0	24	24	435	312	1	34	
3	0	0	0	0	28	24	465	312	1	34	
4	0	0	0	0	28	24	504	312	1	34	
5	0	0	0	0	28	24	543	312	1	34	
6	0	0	0	0	35	31	588	312	1	34	
7	0	0	0	0	24	24	625	312	1	34	
8	0	0	0	0	31	28	655	312	1	34	
9	0	0	0	0	28	24	679	312	1	34	
10	0	0	0	0	28	24	689	312	1	34	
11	0	0	0	0	31	28	688	312	1	34	
12	0	0	0	0	28	24	671	312	1	34	
13	0	0	0	0	35	31	639	312	1	34	
14	0	0	0	0	24	24	608	312	1	34	
15	0	0	0	0	31	28	563	312	1	34	
0	0	0	0	0	28	24	519	312	1	34	
1	0	0	0	0	35	31	476	312	1	34	
2	0	0	0	0	31	28	440	312	1	34	
3	0	0	0	0	28	24	414	312	1	34	
4	0	0	0	0	31	28	399	312	1	34	
5	0	0	0	0	28	24	399	312	1	34	
6	0	0	0	0	31	28	415	312	1	34	
7	0	0	0	0	28	24	440	312	1	34	
8	0	0	0	0	31	28	476	312	1	34	
9	0	0	0	0	28	24	519	312	1	34	
10	0	0	0	0	31	28	560	310	1	34	
11	0	0	0	0	35	31	601	310	1	34	
12	0	0	0	0	28	24	636	312	1	34	
13	0	0	0	0	31	28	664	312	1	34	
14	0	0	0	0	28	24	678	312	1	34	
15	0	0	0	0	31	28	679	312	1	34	
0	0	0	0	0	28	24	671	312	1	34	
1	0	0	0	0	24	24	654	312	1	34	
2	0	0	0	0	28	24	624	312	1	34	
3	0	0	0	0	28	24	588	312	1	34	
4	0	0	0	0	31	28	547	312	1	34	
5	0	0	0	0	31	28	508	310	1	34	
6	0	0	0	0	35	31	472	312	1	34	
7	0	0	0	0	31	28	441	312	1	34	
8	0	0	0	0	35	31	423	310	1	34	
9	0	0	0	0	28	24	415	312	1	34	
10	0	0	0	0	28	24	423	312	1	34	
11	0	0	0	0	31	28	440	312	1	34	
12	0	0	0	0	31	28	465	312	1	34	
13	0	0	0	0	28	24	499	310	1	34	
14	0	0	0	0	30	28	536	310	1	34	
15	0	0	0	0	28	24	572	310	1	34	
0	0	0	0	0	31	28	604	310	1	34	
1	0	0	0	0	28	24	627	310	1	34	
2	0	0	0	0	28	24	639	310	1	34	
3	0	0	0	0	28	24	639	310	1	34	
4	0	0	0	0	28	24	632	310	1	34	
5	0	0	0	0	28	24	611	312	1	34	
6	0	0	0	0	24	24	582	310	1	34	
7	0	0	0	0	28	24	545	310	1	34	
8	0	0	0	0	28	24	511	310	1	34	
9	0	0	0	0	31	28	478	310	1	34	
10	0	0	0	0	28	24	449	310	1	34	
11	0	0	0	0	35	31	432	310	1	34	
12	0	0	0	0	31	28	425	310	1	34	
13	0	0	0	0	28	24	432	310	1	34	
14	0	0	0	0	31	28	451	310	1	34	
15	0	0	0	0	28	24	480	310	1	34	
0	0	0	0	0	28	24	515	310	1	34	
1	0	0	0	0	28	24	556	312	1	34	
2	0	0	0	0	31	28	593	312	1	34	
3	0	0	0	0	31	28	632	312	1	34	
4	0	0	0	0	31	28	655	310	1	34	
5	0	0	0	0	31	28	675	312	1	34	
6	0	0	0	0	35	31	679	312	1	34	
7	0	0	0	0	31	28	671	312	1	34	
8	0	0	0	0	28	24	654	312	1	34	
9	0	0	0	0	28	24	622	312	1	34	
10	0	0	0	0	28	24	579	312	1	34	
11	0	0	0	0	28	22	536	312	1	34	
12	0	0	0	0	28	24	486	312	1	34	
13	0	0	0	0	31	28	440	312	1	34	
14	0	0	0	0	24	24	403	312	1	34	
15	0	0	0	0	31	28	376	312	1	34	
0	0	0	0	0	28	24	364	312	1	34	
1	0	0	0	0	24	24	368	312	1	34	
2	0	0	0	0	28	24	384	312	1	34	
3	0	0	0	0	28	24	412	312	1	34	
4	0	0	0	0	28	24	449	312	1	34	
5	0	0	0	0	28	24	496	312	1	34	
6	0	0	0	0	24	24	543	312	1	34	
7	0	0	0	0	28	24	591	312	1	34	
8	0	0	0	0	28	24	632	312	1	34	
9	0	0	0	0	28	24	664	312	1	34	
10	0	0	0	0	31	28	681	312	1	34	
11	0	0	0	0	35	31	686	312	1	34	
12	0	0	0	0	31	28	675	312	1	34	
13	0	0	0	0	28	24	652	312	1	34	
14	0	0	0	0	28	24	615	312	1	34	
15	0	0	0	0	28	24	572	312	1	34	
0	0	0	0	0	31	28	524	312	1	34	
1	0	0	0	0	31	28	480	312	1	34	
2	0	0	0	0	28	24	440	312	1	34	
3	0	0	0	0	28	28	408	312	1	34	
4	0	0	0	0	28	24	390	312	1	34	
5	0	0	0	0	31	28	384	310	1	34	
6	0	0	0	0	31	28	391	310	1	34	
7	0	0	0	0	31	28	414	310	1	34	
8	0	0	0	0	35	31	448	310	1	34	
9	0	0	0	0	28	24	483	312	1	34	
10	0	0	0	0	28	24	527	312	1	34	
11	0	0	0	0	28	24	568	312	1	34	
12	0	0	0	0	31	28	608	310	1	34	
13	0	0	0	0	28	24	636	310	1	34	
14	0	0	0	0	25	24	654	310	1	34	
15	0	0	0	0	31	28	659	312	1	34	
0	0	0	0	0	28	24	652	312	1	34	
1	0	0	0	0	35	31	632	312	1	34	
2	0	0	0	0	31	28	601	312	1	34	
3	0	0	0	0	28	24	568	312	1	34	
4	0	0	0	0	31	28	527	312	1	34	
5	0	0	0	0	31	28	492	312	1	34	
6	0	0	0	0	28	24	460	310	1	34	
7	0	0	0	0	28	24	438	310	1	34	
8	0	0	0	0	31	28	423	310	1	34	
9	0	0	0	0	28	24	423	310	1	34	
10	0	0	0	0	35	31	435	310	1	34	
11	0	0	0	0	35	31	455	312	1	34	
12	0	0	0	0	28	24	487	312	1	34	
13	0	0	0	0	28	24	521	312	1	34	
14	0	0	0	0	31	28	560	310	1	34	
15	0	0	0	0	24	24	595	312	1	34	
0	0	0	0	0	28	24	624	312	1	34	
1	0	0	0	0	35	31	639	310	1	34	
2	0	0	0	0	28	24	655	312	1	34	
3	0	0	0	0	28	24	652	312	1	34	
4	0	0	0	0	31	28	633	312	1	34	
5	0	0	0	0	31	28	604	312	1	34	
6	0	0	0	0	24	24	568	312	1	34	
7	0	0	0	0	31	28	521	312	1	34	
8	0	0	0	0	28	24	476	312	1	34	
9	0	0	0	0	24	24	432	312	1	34	
10	0	0	0	0	28	24	396	312	1	34	
11	0	0	0	0	31	28	369	312	1	34	
12	0	0	0	0	35	31	355	312	1	34	
13	0	0	0	0	28	24	355	312	1	34	
14	0	0	0	0	28	28	369	312	1	34	
15	0	0	0	0	28	24	396	312	1	34	
0	0	0	0	0	31	28	432	312	1	34	
1	0	0	0	0	35	31	476	312	1	34	
2	0	0	0	0	31	28	519	312	1	34	
3	0	0	0	0	24	24	568	312	1	34	
4	0	0	0	0	31	28	608	312	1	34	
5	0	0	0	0	35	31	636	312	1	34	
6	0	0	0	0	28	24	655	312	1	34	
7	0	0	0	0	28	24	664	312	1	34	
8	0	0	0	0	28	24	655	312	1	34	
9	0	0	0	0	31	28	633	312	1	34	
10	0	0	0	0	28	24	604	312	1	34	
11	0	0	0	0	35	31	563	312	1	34	
12	0	0	0	0	28	24	524	312	1	34	
13	0	0	0	0	31	28	483	312	1	34	
14	0	0	0	0	28	24	448	312	1	34	
15	0	0	0	0	28	24	419	312	1	34	
0	0	0	0	0	28	24	403	312	1	34	
1	0	0	0	0	24	24	399	312	1	34	
2	0	0	0	0	28	24	408	312	1	34	
3	0	0	0	0	28	28	425	312	1	34	
4	0	0	0	0	28	24	455	312	1	34	
5	0	0	0	0	28	24	492	312	1	34	
6	0	0	0	0	24	24	531	312	1	34	
7	0	0	0	0	28	24	569	312	1	34	
8	0	0	0	0	28	24	604	312	1	34	
9	0	0	0	0	28	24	632	312	1	34	
10	0	0	0	0	28	24	639	312	1	34	
11	0	0	0	0	24	24	647	312	1	34	
12	0	0	0	0	28	24	639	312	1	34	
13	0	0	0	0	28	24	615	312	1	34	
14	0	0	0	0	24	24	583	312	1	34	
15	0	0	0	0	31	24	547	312	1	34	
0	0	0	0	0	28	28	505	310	1	34	
1	0	0	0	0	31	28	465	312	1	34	
2	0	0	0	0	28	24	433	310	1	34	
3	0	0	0	0	28	24	409	310	1	34	
4	0	0	0	0	28	24	398	312	1	34	
5	0	0	0	0	28	24	398	312	1	34	
6	0	0	0	0	35	31	409	312	1	34	
7	0	0	0	0	28	24	432	310	1	34	
8	0	0	0	0	28	24	463	310	1	34	
9	0	0	0	0	27	24	502	310	1	34	
10	0	0	0	0	24	24	540	312	1	34	
11	0	0	0	0	31	28	575	312	1	34	
12	0	0	0	0	31	28	608	312	1	34	
13	0	0	0	0	28	24	632	312	1	34	
14	0	0	0	0	28	24	639	312	1	34	
15	0	0	0	0	31	28	639	312	1	34	
0	0	0	0	0	31	28	632	312	1	34	
1	0	0	0	0	31	28	611	312	1	34	
2	0	0	0	0	31	28	583	312	1	34	
3	0	0	0	0	28	24	551	310	1	34	
4	0	0	0	0	31	28	515	310	1	34	
5	0	0	0	0	31	28	481	310	1	34	
6	0	0	0	0	31	28	454	310	1	34	
7	0	0	0	0	35	31	433	310	1	34	
8	0	0	0	0	35	31	423	310	1	34	
9	0	0	0	0	28	24	423	310	1	34	
10	0	0	0	0	35	31	435	310	1	34	
11	0	0	0	0	31	28	455	310	1	34	
12	0	0	0	0	28	24	481	312	1	34	
13	0	0	0	0	28	24	513	310	1	34	
14	0	0	0	0	24	24	547	310	1	34	
15	0	0	0	0	28	24	575	310	1	34	
0	0	0	0	0	24	24	604	310	1	34	
1	0	0	0	0	35	31	620	310	1	34	
2	0	0	0	0	35	31	627	312	1	34	
3	0	0	0	0	28	24	624	312	1	34	
4	0	0	0	0	31	28	611	312	1	34	
5	0	0	0	0	28	24	590	310	1	34	
6	0	0	0	0	28	24	560	310	1	34	
7	0	0	0	0	28	24	524	312	1	34	
8	0	0	0	0	28	24	487	312	1	34	
9	0	0	0	0	25	24	451	312	1	34	
10	0	0	0	0	28	24	423	312	1	34	
11	0	0	0	0	35	31	401	310	1	34	
12	0	0	0	0	28	24	391	310	1	34	
13	0	0	0	0	31	28	393	310	1	34	
14	0	0	0	0	28	24	408	310	1	34	
15	0	0	0	0	28	24	430	310	1	34	
0	0	0	0	0	28	24	460	310	1	34	
1	0	0	0	0	31	28	496	310	1	34	
2	0	0	0	0	28	24	531	310	1	34	
3	0	0	0	0	28	24	568	312	1	34	
4	0	0	0	0	31	28	595	312	1	34	
5	0	0	0	0	28	24	617	312	1	34	
6	0	0	0	0	28	24	632	312	1	34	
7	0	0	0	0	31	28	632	312	1	34	
8	0	0	0	0	28	24	617	312	1	34	
9	0	0	0	0	31	28	595	312	1	34	
10	0	0	0	0	31	28	566	312	1	34	
11	0	0	0	0	24	24	527	312	1	34	
12	0	0	0	0	28	24	492	312	1	34	
13	0	0	0	0	24	24	455	312	1	34	
14	0	0	0	0	30	28	428	312	1	34	
15	0	0	0	0	28	24	408	312	1	34	
0	0	0	0	0	28	24	393	312	1	34	
1	0	0	0	0	35	31	393	312	1	34	
2	0	0	0	0	28	24	406	312	1	34	
3	0	0	0	0	31	28	428	312	1	34	
4	0	0	0	0	28	24	455	312	1	34	
5	0	0	0	0	28	24	494	312	1	34	
6	0	0	0	0	28	24	531	312	1	34	
7	0	0	0	0	31	28	568	312	1	34	
8	0	0	0	0	24	24	600	312	1	34	
9	0	0	0	0	28	24	620	312	1	34	
10	0	0	0	0	35	31	632	312	1	34	
11	0	0	0	0	31	28	632	312	1	34	
12	0	0	0	0	31	28	620	312	1	34	
13	0	0	0	0	31	28	595	312	1	34	
14	0	0	0	0	31	28	566	312	1	34	
15	0	0	0	0	28	24	527	312	1	34	
0	0	0	0	0	31	28	492	312	1	34	
1	0	0	0	0	35	31	455	312	1	34	
2	0	0	0	0	31	28	425	312	1	34	
3	0	0	0	0	31	28	406	312	1	34	
4	0	0	0	0	31	28	393	312	1	34	
5	0	0	0	0	28	24	396	312	1	34	
6	0	0	0	0	31	28	408	312	1	34	
7	0	0	0	0	28	24	432	312	1	34	
8	0	0	0	0	35	31	463	312	1	34	
9	0	0	0	0	31	28	500	312	1	34	
10	0	0	0	0	28	24	540	312	1	34	
11	0	0	0	0	31	28	575	312	1	34	
12	0	0	0	0	28	24	609	312	1	34	
13	0	0	0	0	28	24	632	312	1	34	
14	0	0	0	0	28	28	639	312	1	34	
15	0	0	0	0	28	24	639	312	1	34	
0	0	0	0	0	28	24	632	312	1	34	
1	0	0	0	0	24	24	604	312	1	34	
2	0	0	0	0	31	28	568	312	1	34	
3	0	0	0	0	28	22	527	312	1	34	
4	0	0	0	0	31	28	483	312	1	34	
5	0	0	0	0	28	24	441	312	1	34	
6	0	0	0	0	31	28	408	312	1	34	
7	0	0	0	0	31	28	384	312	1	34	
8	0	0	0	0	31	28	368	312	1	34	
9	0	0	0	0	28	24	368	312	1	34	
10	0	0	0	0	28	24	380	312	1	34	
11	0	0	0	0	24	24	403	312	1	34	
12	0	0	0	0	31	28	435	312	1	34	
13	0	0	0	0	28	24	476	310	1	34	
14	0	0	0	0	28	24	519	310	1	34	
15	0	0	0	0	31	28	560	310	1	34	
0	0	0	0	0	28	24	598	310	1	34	
1	0	0	0	0	28	24	624	310	1	34	
2	0	0	0	0	31	28	639	310	1	34	
3	0	0	0	0	28	24	647	310	1	34	
4	0	0	0	0	28	24	639	310	1	34	
5	0	0	0	0	31	28	620	310	1	34	
6	0	0	0	0	31	28	588	310	1	34	
7	0	0	0	0	28	24	550	312	1	34	
8	0	0	0	0	31	28	508	310	1	34	
9	0	0	0	0	28	24	465	310	1	34	
10	0	0	0	0	28	24	432	310	1	34	
11	0	0	0	0	31	28	403	310	1	34	
12	0	0	0	0	28	24	385	310	1	34	
13	0	0	0	0	35	31	384	310	1	34	
14	0	0	0	0	24	24	390	310	1	34	
15	0	0	0	0	31	28	408	310	1	34	
0	0	0	0	0	28	24	435	310	1	34	
1	0	0	0	0	35	31	472	310	1	34	
2	0	0	0	0	31	28	508	312	1	34	
3	0	0	0	0	28	24	543	310	1	34	
4	0	0	0	0	31	28	575	310	1	34	
5	0	0	0	0	28	24	600	310	1	34	
6	0	0	0	0	31	28	611	310	1	34	
7	0	0	0	0	28	24	615	310	1	34	
8	0	0	0	0	31	28	608	310	1	34	
9	0	0	0	0	24	24	590	310	1	34	
10	0	0	0	0	28	24	561	310	1	34	
11	0	0	0	0	31	28	529	312	1	34	
12	0	0	0	0	28	24	496	312	1	34	
13	0	0	0	0	24	24	463	310	1	34	
14	0	0	0	0	31	28	435	310	1	34	
15	0	0	0	0	28	24	415	310	1	34	
0	0	0	0	0	28	24	408	310	1	34	
1	0	0	0	0	35	31	408	310	1	34	
2	0	0	0	0	28	24	415	310	1	34	
3	0	0	0	0	28	24	440	312	1	34	
4	0	0	0	0	28	24	467	312	1	34	
5	0	0	0	0	24	24	500	310	1	34	
6	0	0	0	0	31	28	536	310	1	34	
7	0	0	0	0	31	28	572	310	1	34	
8	0	0	0	0	28	24	600	312	1	34	
9	0	0	0	0	28	24	624	312	1	34	
10	0	0	0	0	24	24	632	312	1	34	
11	0	0	0	0	28	24	632	310	1	34	
12	0	0	0	0	24	24	620	312	1	34	
13	0	0	0	0	28	24	600	312	1	34	
14	0	0	0	0	35	31	568	312	1	34	
15	0	0	0	0	28	24	527	312	1	34	
0	0	0	0	0	28	24	487	312	1	34	
1	0	0	0	0	24	24	451	310	1	34	
2	0	0	0	0	31	28	419	310	1	34	
3	0	0	0	0	28	24	398	310	1	34	
4	0	0	0	0	28	24	385	312	1	34	
5	0	0	0	0	28	24	385	312	1	34	
6	0	0	0	0	31	28	398	312	1	34	
7	0	0	0	0	31	28	419	312	1	34	
8	0	0	0	0	28	24	451	312	1	34	
9	0	0	0	0	35	31	487	312	1	34	
10	0	0	0	0	28	24	527	312	1	34	
11	0	0	0	0	24	24	568	312	1	34	
12	0	0	0	0	28	24	598	312	1	34	
13	0	0	0	0	28	24	620	312	1	34	
14	0	0	0	0	28	24	632	312	1	34	
15	0	0	0	0	31	28	632	312	1	34	
0	0	0	0	0	24	24	622	312	1	34	
1	0	0	0	0	28	24	600	312	1	34	
2	0	0	0	0	24	24	568	312	1	34	
3	0	0	0	0	28	24	531	312	1	34	
4	0	0	0	0	35	31	494	312	1	34	
5	0	0	0	0	28	24	455	312	1	34	
6	0	0	0	0	24	24	423	312	1	34	
7	0	0	0	0	31	28	403	312	1	34	
8	0	0	0	0	31	28	391	312	1	34	
9	0	0	0	0	28	24	390	312	1	34	
10	0	0	0	0	28	24	399	312	1	34	
11	0	0	0	0	28	24	423	312	1	34	
12	0	0	0	0	31	28	455	312	1	34	
13	0	0	0	0	35	31	492	312	1	34	
14	0	0	0	0	28	28	531	312	1	34	
15	0	0	0	0	31	28	569	312	1	34	
0	0	0	0	0	28	24	604	312	1	34	
1	0	0	0	0	31	28	627	312	1	34	
2	0	0	0	0	28	24	639	312	1	34	
3	0	0	0	0	24	24	639	312	1	34	
4	0	0	0	0	28	24	632	312	1	34	
5	0	0	0	0	31	28	608	312	1	34	
6	0	0	0	0	35	31	575	312	1	34	
7	0	0	0	0	28	22	536	312	1	34	
8	0	0	0	0	28	25	496	312	1	34	
9	0	0	0	0	31	28	455	312	1	34	
10	0	0	0	0	28	24	419	312	1	34	
11	0	0	0	0	31	28	391	312	1	34	
12	0	0	0	0	28	24	380	312	1	34	
13	0	0	0	0	28	24	377	312	1	34	
14	0	0	0	0	28	24	388	312	1	34	
15	0	0	0	0	35	31	412	312	1	34	
0	0	0	0	0	28	24	444	310	1	34	
1	0	0	0	0	28	24	480	312	1	34	
2	0	0	0	0	31	28	519	312	1	34	
3	0	0	0	0	24	24	560	312	1	34	
4	0	0	0	0	31	28	591	312	1	34	
5	0	0	0	0	28	24	615	312	1	34	
6	0	0	0	0	24	24	632	312	1	34	
7	0	0	0	0	31	28	633	312	1	34	
8	0	0	0	0	28	24	624	312	1	34	
9	0	0	0	0	28	24	604	312	1	34	
10	0	0	0	0	28	24	572	310	1	34	
11	0	0	0	0	28	24	536	310	1	34	
12	0	0	0	0	28	24	496	312	1	34	
13	0	0	0	0	28	24	460	312	1	34	
14	0	0	0	0	25	24	428	312	1	34	
15	0	0	0	0	28	24	403	312	1	34	
0	0	0	0	0	35	31	391	312	1	34	
1	0	0	0	0	35	31	391	312	1	34	
2	0	0	0	0	24	24	401	312	1	34	
3	0	0	0	0	28	24	423	312	1	34	
4	0	0	0	0	28	24	455	312	1	34	
5	0	0	0	0	28	24	492	312	1	34	
6	0	0	0	0	31	28	529	312	1	34	
7	0	0	0	0	28	24	568	312	1	34	
8	0	0	0	0	28	24	600	312	1	34	
9	0	0	0	0	31	28	624	312	1	34	
10	0	0	0	0	24	24	638	312	1	34	
11	0	0	0	0	35	31	639	312	1	34	
12	0	0	0	0	31	28	632	312	1	34	
13	0	0	0	0	31	28	615	312	1	34	
14	0	0	0	0	31	28	588	312	1	34	
15	0	0	0	0	28	24	553	312	1	34	
0	0	0	0	0	28	24	519	312	1	34	
1	0	0	0	0	28	24	483	312	1	34	
2	0	0	0	0	28	24	451	312	1	34	
3	0	0	0	0	28	24	428	312	1	34	
4	0	0	0	0	28	24	412	312	1	34	
5	0	0	0	0	31	28	408	312	1	34	
6	0	0	0	0	28	24	415	312	1	34	
7	0	0	0	0	28	24	432	312	1	34	
8	0	0	0	0	31	28	455	312	1	34	
9	0	0	0	0	35	31	487	312	1	34	
10	0	0	0	0	35	31	519	312	1	34	
11	0	0	0	0	31	28	551	312	1	34	
12	0	0	0	0	28	24	583	312	1	34	
13	0	0	0	0	28	24	608	312	1	34	
14	0	0	0	0	24	24	620	312	1	34	
15	0	0	0	0	35	31	624	312	1	34	
0	0	0	0	0	28	24	615	312	1	34	
1	0	0	0	0	24	24	600	310	1	34	
2	0	0	0	0	31	28	574	310	1	34	
3	0	0	0	0	28	24	540	312	1	34	
4	0	0	0	0	28	24	504	310	1	34	
5	0	0	0	0	28	24	472	310	1	34	
6	0	0	0	0	28	24	440	310	1	34	
7	0	0	0	0	28	24	415	310	1	34	
8	0	0	0	0	35	31	406	310	1	34	
9	0	0	0	0	28	24	403	310	1	34	
10	0	0	0	0	28	24	415	308	1	34	
11	0	0	0	0	31	28	435	310	1	34	
12	0	0	0	0	28	24	463	310	1	34	
13	0	0	0	0	28	24	497	307	1	34	
14	0	0	0	0	28	24	536	308	1	34	
15	0	0	0	0	28	24	568	310	1	34	
0	0	0	0	0	31	28	595	310	1	34	
1	0	0	0	0	31	28	615	310	1	34	
2	0	0	0	0	28	24	627	310	1	34	
3	0	0	0	0	28	28	627	310	1	34	
4	0	0	0	0	28	24	615	310	1	34	
5	0	0	0	0	31	28	591	310	1	34	
6	0	0	0	0	31	28	561	310	1	34	
7	0	0	0	0	31	28	527	310	1	34	
8	0	0	0	0	28	24	492	310	1	34	
9	0	0	0	0	28	24	455	310	1	34	
10	0	0	0	0	28	24	428	310	1	34	
11	0	0	0	0	35	31	408	310	1	34	
12	0	0	0	0	28	24	396	312	1	34	
13	0	0	0	0	28	24	399	312	1	34	
14	0	0	0	0	24	24	412	312	1	34	
15	0	0	0	0	24	24	435	312	1	34	
0	0	0	0	0	28	24	467	310	1	34	
1	0	0	0	0	28	24	504	310	1	34	
2	0	0	0	0	28	24	542	310	1	34	
3	0	0	0	0	35	31	575	310	1	34	
4	0	0	0	0	28	24	608	312	1	34	
5	0	0	0	0	31	28	630	312	1	34	
6	0	0	0	0	35	31	639	310	1	34	
7	0	0	0	0	31	28	639	312	1	34	
8	0	0	0	0	28	24	627	312	1	34	
9	0	0	0	0	27	24	608	312	1	34	
10	0	0	0	0	24	24	575	312	1	34	
11	0	0	0	0	31	24	540	312	1	34	
12	0	0	0	0	28	24	502	312	1	34	
13	0	0	0	0	28	24	465	312	1	34	
14	0	0	0	0	28	24	435	312	1	34	
15	0	0	0	0	31	28	415	312	1	34	
0	0	0	0	0	28	24	404	312	1	34	
1	0	0	0	0	28	24	408	312	1	34	
2	0	0	0	0	35	31	419	312	1	34	
3	0	0	0	0	28	24	441	312	1	34	
4	0	0	0	0	28	24	472	312	1	34	
5	0	0	0	0	31	28	510	312	1	34	
6	0	0	0	0	24	24	547	312	1	34	
7	0	0	0	0	31	28	583	312	1	34	
8	0	0	0	0	28	24	615	312	1	34	
9	0	0	0	0	28	24	638	312	1	34	
10	0	0	0	0	28	24	647	312	1	34	
11	0	0	0	0	24	24	647	312	1	34	
12	0	0	0	0	28	24	638	312	1	34	
13	0	0	0	0	28	24	615	312	1	34	
14	0	0	0	0	24	24	583	312	1	34	
15	0	0	0	0	28	24	543	312	1	34	
0	0	0	0	0	28	24	505	312	1	34	
1	0	0	0	0	24	24	467	312	1	34	
2	0	0	0	0	31	28	438	312	1	34	
3	0	0	0	0	28	24	415	312	1	34	
4	0	0	0	0	28	24	401	312	1	34	
5	0	0	0	0	28	24	401	310	1	34	
6	0	0	0	0	28	24	415	310	1	34	
