# OpenSignals Text File Format. Version 1
# {"98:D3:31:B2:BC:63": {"sensor": ["RAW", "RAW", "RAW", "RAW", "RAW", "RAW"], "device name": "98:D3:31:B2:BC:63", "column": ["nSeq", "I1", "I2", "I3", "I4", "A1", "A2", "A3", "A4", "A5", "A6"], "sync interval": 2, "time": "12:16:15.71", "comments": "", "device connection": "/dev/tty.bitalino-DevB", "channels": [1, 2, 3, 4, 5, 6], "keywords": "", "convertedValues": 0, "mode": 0, "digital IO": [0, 0, 0, 0, 1, 1, 1, 1], "firmware version": 771, "device": "bitalino", "position": 0, "sampling rate": 1000, "label": ["A1", "A2", "A3", "A4", "A5", "A6"], "resolution": [4, 1, 1, 1, 1, 10, 10, 10, 10, 6, 6], "date": "2020-2-14", "special": [{}, {}, {}, {}, {}, {}]}}
# EndOfHeader
1	0	0	0	0	28	24	54	312	1	35	
2	0	0	0	0	28	24	0	312	1	35	
3	0	0	0	0	24	24	0	312	1	35	
4	0	0	0	0	28	24	0	312	1	35	
5	0	0	0	0	28	24	0	312	1	35	
6	0	0	0	0	28	24	455	312	1	35	
7	0	0	0	0	28	24	1020	312	1	35	
8	0	0	0	0	28	24	1020	312	1	35	
9	0	0	0	0	28	24	1020	312	1	35	
10	0	0	0	0	28	24	1020	312	1	35	
11	0	0	0	0	28	24	1020	312	1	35	
12	0	0	0	0	28	24	1020	312	1	35	
13	0	0	0	0	28	24	1020	312	1	35	
14	0	0	0	0	31	28	1020	312	1	35	
15	0	0	0	0	28	24	1020	312	1	35	
0	0	0	0	0	28	24	1020	312	1	35	
1	0	0	0	0	31	28	1020	312	1	35	
2	0	0	0	0	28	24	1020	312	1	35	
3	0	0	0	0	28	24	1020	312	1	35	
4	0	0	0	0	28	24	696	312	1	35	
5	0	0	0	0	28	24	1	312	1	35	
6	0	0	0	0	28	24	0	312	1	35	
7	0	0	0	0	31	28	0	312	1	35	
8	0	0	0	0	31	28	0	312	1	35	
9	0	0	0	0	28	24	0	312	1	35	
10	0	0	0	0	28	24	430	312	1	35	
11	0	0	0	0	28	24	1020	312	1	35	
12	0	0	0	0	28	24	1020	312	1	35	
13	0	0	0	0	31	28	1020	312	1	35	
14	0	0	0	0	28	24	1020	312	1	35	
15	0	0	0	0	28	24	1020	312	1	35	
0	0	0	0	0	28	24	1020	312	1	35	
1	0	0	0	0	31	28	1020	312	1	35	
2	0	0	0	0	28	24	1020	312	1	35	
3	0	0	0	0	28	24	1020	312	1	35	
4	0	0	0	0	28	24	1020	312	1	35	
5	0	0	0	0	28	24	1020	312	1	35	
6	0	0	0	0	28	24	1020	312	1	35	
7	0	0	0	0	35	31	1020	312	1	35	
8	0	0	0	0	31	28	675	312	1	35	
9	0	0	0	0	24	24	1	312	1	35	
10	0	0	0	0	31	28	0	312	1	35	
11	0	0	0	0	28	24	0	312	1	35	
12	0	0	0	0	31	28	0	312	1	35	
13	0	0	0	0	28	24	0	312	1	35	
14	0	0	0	0	24	24	467	312	1	35	
15	0	0	0	0	28	24	1020	312	1	35	
0	0	0	0	0	31	28	1020	312	1	35	
1	0	0	0	0	31	28	1020	312	1	35	
2	0	0	0	0	28	24	1020	312	1	35	
3	0	0	0	0	31	28	1020	312	1	35	
4	0	0	0	0	28	24	1020	312	1	35	
5	0	0	0	0	31	28	1020	312	1	35	
6	0	0	0	0	31	28	1020	312	1	35	
7	0	0	0	0	28	24	1020	312	1	35	
8	0	0	0	0	28	24	1020	312	1	35	
9	0	0	0	0	28	24	1020	312	1	35	
10	0	0	0	0	28	24	1020	312	1	35	
11	0	0	0	0	24	24	1020	312	1	35	
12	0	0	0	0	35	31	793	312	2	35	
13	0	0	0	0	28	24	108	312	1	35	
14	0	0	0	0	28	24	0	312	1	35	
15	0	0	0	0	28	24	0	312	1	35	
0	0	0	0	0	28	24	0	312	1	35	
1	0	0	0	0	28	24	70	312	1	35	
2	0	0	0	0	28	24	639	312	1	35	
3	0	0	0	0	24	24	1020	312	1	35	
4	0	0	0	0	28	24	1020	312	1	35	
5	0	0	0	0	35	31	1020	312	1	35	
6	0	0	0	0	35	31	1020	312	1	35	
7	0	0	0	0	28	24	1020	312	1	35	
8	0	0	0	0	24	24	1020	312	1	35	
9	0	0	0	0	28	24	1020	312	1	35	
10	0	0	0	0	28	24	1020	312	1	35	
11	0	0	0	0	28	24	1020	312	1	35	
12	0	0	0	0	31	28	1020	312	1	35	
13	0	0	0	0	31	28	1020	312	1	35	
14	0	0	0	0	25	24	1020	312	1	35	
15	0	0	0	0	28	24	1020	312	1	35	
0	0	0	0	0	35	31	840	312	1	35	
1	0	0	0	0	28	24	161	312	1	35	
2	0	0	0	0	31	28	0	312	1	35	
3	0	0	0	0	31	28	0	312	1	35	
4	0	0	0	0	31	28	0	312	1	35	
5	0	0	0	0	28	24	103	312	1	35	
6	0	0	0	0	31	28	696	312	1	35	
7	0	0	0	0	28	24	1020	312	1	35	
8	0	0	0	0	28	24	1020	312	1	35	
9	0	0	0	0	24	24	1020	312	1	35	
10	0	0	0	0	28	24	1020	312	1	35	
11	0	0	0	0	28	24	1020	312	1	35	
12	0	0	0	0	28	24	1020	312	1	35	
13	0	0	0	0	28	24	1020	312	1	35	
14	0	0	0	0	28	24	1020	312	1	35	
15	0	0	0	0	31	28	1020	312	1	35	
0	0	0	0	0	31	28	1020	312	1	35	
1	0	0	0	0	28	24	1020	312	1	35	
2	0	0	0	0	31	28	1020	312	1	35	
3	0	0	0	0	24	24	1022	312	1	35	
4	0	0	0	0	31	28	705	312	1	35	
5	0	0	0	0	31	28	1	312	1	35	
6	0	0	0	0	31	28	0	312	1	35	
7	0	0	0	0	31	28	0	312	1	35	
8	0	0	0	0	28	24	0	312	1	35	
9	0	0	0	0	28	24	0	312	1	35	
10	0	0	0	0	28	24	432	312	1	35	
11	0	0	0	0	28	24	1020	312	1	35	
12	0	0	0	0	31	28	1020	312	1	35	
13	0	0	0	0	28	24	1020	312	1	35	
14	0	0	0	0	31	28	1020	312	1	35	
15	0	0	0	0	31	28	1020	312	1	35	
0	0	0	0	0	31	28	1020	312	1	35	
1	0	0	0	0	28	24	1020	312	1	35	
2	0	0	0	0	28	24	1020	312	1	35	
3	0	0	0	0	28	24	1020	312	1	35	
4	0	0	0	0	35	31	1020	312	1	35	
5	0	0	0	0	31	28	1020	312	1	35	
6	0	0	0	0	24	24	1020	312	1	35	
7	0	0	0	0	28	24	1020	312	1	35	
8	0	0	0	0	24	24	609	312	1	35	
9	0	0	0	0	31	28	0	312	1	35	
10	0	0	0	0	31	28	0	312	1	35	
11	0	0	0	0	28	24	0	312	1	35	
12	0	0	0	0	35	31	0	312	2	35	
13	0	0	0	0	28	24	0	312	1	35	
14	0	0	0	0	28	24	227	312	1	35	
15	0	0	0	0	28	24	910	312	1	35	
0	0	0	0	0	31	28	1020	312	1	35	
1	0	0	0	0	28	24	1020	312	1	35	
2	0	0	0	0	31	28	1020	312	1	35	
3	0	0	0	0	28	28	1020	312	1	35	
4	0	0	0	0	31	28	1020	312	1	35	
5	0	0	0	0	31	28	1020	312	1	35	
6	0	0	0	0	35	31	1017	312	1	35	
7	0	0	0	0	28	24	1020	312	1	35	
8	0	0	0	0	28	24	1020	312	1	35	
9	0	0	0	0	31	28	1020	312	1	35	
10	0	0	0	0	28	24	1020	312	1	35	
11	0	0	0	0	31	28	1020	312	1	35	
12	0	0	0	0	28	24	659	312	1	35	
13	0	0	0	0	28	24	0	312	1	35	
14	0	0	0	0	25	24	0	312	1	35	
15	0	0	0	0	35	31	0	312	1	35	
0	0	0	0	0	28	24	0	312	1	35	
1	0	0	0	0	24	24	0	312	1	35	
2	0	0	0	0	28	24	326	312	1	35	
3	0	0	0	0	28	24	1020	312	1	35	
4	0	0	0	0	28	24	1020	312	1	35	
5	0	0	0	0	28	24	1020	312	1	35	
6	0	0	0	0	28	24	1020	312	1	35	
7	0	0	0	0	28	24	1020	312	1	35	
8	0	0	0	0	31	28	1020	312	1	35	
9	0	0	0	0	31	28	1020	312	1	35	
10	0	0	0	0	28	24	1020	312	1	35	
11	0	0	0	0	35	31	1017	312	1	35	
12	0	0	0	0	28	24	1020	312	1	35	
13	0	0	0	0	31	28	1020	312	1	35	
14	0	0	0	0	28	24	1020	312	1	35	
15	0	0	0	0	28	24	1020	312	1	35	
0	0	0	0	0	28	24	700	312	1	35	
1	0	0	0	0	28	24	1	312	1	35	
2	0	0	0	0	28	24	0	312	1	35	
3	0	0	0	0	24	28	0	312	1	35	
4	0	0	0	0	28	24	0	312	1	35	
5	0	0	0	0	31	28	0	312	1	35	
6	0	0	0	0	28	24	344	312	1	35	
7	0	0	0	0	28	24	1020	312	1	35	
8	0	0	0	0	31	28	1020	312	1	35	
9	0	0	0	0	31	28	1020	312	1	35	
10	0	0	0	0	28	24	1020	312	1	35	
11	0	0	0	0	28	24	1020	312	1	35	
12	0	0	0	0	24	24	1020	312	1	35	
13	0	0	0	0	28	24	1020	312	1	35	
14	0	0	0	0	25	24	1020	312	1	35	
15	0	0	0	0	28	24	1020	312	1	35	
0	0	0	0	0	28	24	1020	312	1	35	
1	0	0	0	0	28	24	1020	312	1	35	
2	0	0	0	0	31	28	1020	312	1	35	
3	0	0	0	0	31	28	1020	312	1	35	
4	0	0	0	0	28	24	639	312	1	35	
5	0	0	0	0	31	28	0	312	1	35	
6	0	0	0	0	28	24	0	312	1	35	
7	0	0	0	0	31	28	0	312	1	35	
8	0	0	0	0	28	24	0	312	1	35	
9	0	0	0	0	31	28	0	312	1	35	
10	0	0	0	0	28	24	96	312	1	35	
11	0	0	0	0	31	28	711	312	1	35	
12	0	0	0	0	31	28	1020	312	1	35	
13	0	0	0	0	31	28	1020	312	1	35	
14	0	0	0	0	31	28	1020	312	1	35	
15	0	0	0	0	28	24	1020	312	1	35	
0	0	0	0	0	28	24	1020	312	1	35	
1	0	0	0	0	35	31	1019	312	1	35	
2	0	0	0	0	28	24	1020	312	1	35	
3	0	0	0	0	28	28	1020	312	1	35	
4	0	0	0	0	31	28	1020	312	1	35	
5	0	0	0	0	28	24	1020	312	1	35	
6	0	0	0	0	28	24	1020	312	1	35	
7	0	0	0	0	28	22	1022	312	1	35	
8	0	0	0	0	24	24	647	312	1	35	
9	0	0	0	0	28	24	0	312	1	35	
10	0	0	0	0	28	24	0	312	1	35	
11	0	0	0	0	31	28	0	312	1	35	
12	0	0	0	0	31	28	0	312	1	35	
13	0	0	0	0	28	24	0	312	1	35	
14	0	0	0	0	24	24	231	312	1	35	
15	0	0	0	0	28	24	916	312	1	35	
0	0	0	0	0	28	24	1020	312	1	35	
1	0	0	0	0	28	24	1020	312	1	35	
2	0	0	0	0	28	24	1020	312	1	35	
3	0	0	0	0	28	24	1020	312	1	35	
4	0	0	0	0	28	24	1020	312	1	35	
5	0	0	0	0	28	24	1020	312	1	35	
6	0	0	0	0	31	28	1020	312	1	35	
7	0	0	0	0	31	28	1020	312	1	35	
8	0	0	0	0	28	24	1020	312	1	35	
9	0	0	0	0	28	24	1020	312	1	35	
10	0	0	0	0	28	24	1020	312	1	35	
11	0	0	0	0	28	24	1020	312	1	35	
12	0	0	0	0	28	24	780	312	1	35	
13	0	0	0	0	28	24	83	312	1	35	
14	0	0	0	0	28	24	0	312	1	35	
15	0	0	0	0	24	24	0	312	1	35	
0	0	0	0	0	28	24	0	312	1	35	
1	0	0	0	0	28	24	0	312	1	35	
2	0	0	0	0	31	28	387	312	1	35	
3	0	0	0	0	24	28	1020	312	1	35	
4	0	0	0	0	31	28	1020	312	1	35	
5	0	0	0	0	28	24	1020	312	1	35	
6	0	0	0	0	28	24	1020	312	1	35	
7	0	0	0	0	28	24	1020	312	1	35	
8	0	0	0	0	28	24	1020	312	1	35	
9	0	0	0	0	35	31	1020	312	1	35	
10	0	0	0	0	28	24	1020	312	1	35	
11	0	0	0	0	28	24	1020	312	1	35	
12	0	0	0	0	31	28	1020	312	1	35	
13	0	0	0	0	28	24	1020	312	1	35	
14	0	0	0	0	25	24	1020	312	1	35	
15	0	0	0	0	28	24	1020	312	1	35	
0	0	0	0	0	28	24	777	312	1	35	
1	0	0	0	0	31	28	60	312	1	35	
2	0	0	0	0	35	31	0	312	1	35	
3	0	0	0	0	24	24	0	312	1	35	
4	0	0	0	0	28	24	0	312	1	35	
5	0	0	0	0	28	24	0	312	1	35	
6	0	0	0	0	28	24	211	312	1	35	
7	0	0	0	0	31	28	881	312	1	35	
8	0	0	0	0	28	24	1020	312	1	35	
9	0	0	0	0	28	24	1020	312	1	35	
10	0	0	0	0	28	24	1020	312	1	35	
11	0	0	0	0	31	28	1020	312	1	35	
12	0	0	0	0	28	24	1020	312	1	35	
13	0	0	0	0	31	28	1020	312	1	35	
14	0	0	0	0	24	24	1020	312	1	35	
15	0	0	0	0	31	28	1020	312	1	35	
0	0	0	0	0	28	24	1020	312	1	35	
1	0	0	0	0	31	28	1020	312	1	35	
2	0	0	0	0	28	24	1020	312	1	35	
3	0	0	0	0	28	24	1020	312	1	35	
4	0	0	0	0	28	24	796	312	1	35	
5	0	0	0	0	28	24	103	312	1	35	
6	0	0	0	0	24	24	0	312	1	35	
7	0	0	0	0	28	24	0	312	1	35	
8	0	0	0	0	28	24	0	312	1	35	
9	0	0	0	0	31	28	0	312	1	35	
10	0	0	0	0	31	28	371	312	1	35	
11	0	0	0	0	28	24	1020	312	1	35	
12	0	0	0	0	28	24	1020	312	1	35	
13	0	0	0	0	31	28	1020	312	1	35	
14	0	0	0	0	33	31	1020	312	1	35	
15	0	0	0	0	35	31	1020	312	1	35	
0	0	0	0	0	28	24	1020	312	1	35	
1	0	0	0	0	35	31	1020	312	1	35	
2	0	0	0	0	31	28	1020	312	1	35	
3	0	0	0	0	31	28	1020	312	1	35	
4	0	0	0	0	31	28	1020	312	1	35	
5	0	0	0	0	28	24	1020	312	1	35	
6	0	0	0	0	31	28	1020	312	1	35	
7	0	0	0	0	28	24	1020	312	1	35	
8	0	0	0	0	19	24	838	312	1	35	
9	0	0	0	0	24	24	167	312	1	35	
10	0	0	0	0	24	24	0	312	1	35	
11	0	0	0	0	31	28	0	312	1	35	
12	0	0	0	0	28	24	0	312	1	35	
13	0	0	0	0	28	24	0	312	1	35	
14	0	0	0	0	31	28	502	312	1	35	
15	0	0	0	0	28	24	1020	312	1	35	
0	0	0	0	0	28	24	1020	312	1	35	
1	0	0	0	0	35	31	1020	312	1	35	
2	0	0	0	0	28	24	1020	312	1	35	
3	0	0	0	0	24	24	1020	312	1	35	
4	0	0	0	0	28	24	1020	312	1	35	
5	0	0	0	0	28	24	1020	312	1	35	
6	0	0	0	0	31	28	1020	312	1	35	
7	0	0	0	0	31	28	1020	312	1	35	
8	0	0	0	0	31	28	1020	312	1	35	
9	0	0	0	0	28	24	1020	312	1	35	
10	0	0	0	0	35	31	1020	312	1	35	
11	0	0	0	0	28	22	1022	312	1	35	
12	0	0	0	0	28	24	847	312	1	35	
13	0	0	0	0	31	28	179	312	1	35	
14	0	0	0	0	25	24	0	312	1	35	
15	0	0	0	0	28	24	0	312	1	35	
0	0	0	0	0	31	28	0	312	1	35	
1	0	0	0	0	24	24	0	312	1	35	
2	0	0	0	0	28	24	454	312	1	35	
3	0	0	0	0	28	24	1020	312	1	35	
4	0	0	0	0	28	24	1020	312	1	35	
5	0	0	0	0	31	28	1020	312	1	35	
6	0	0	0	0	31	28	1020	312	1	35	
7	0	0	0	0	28	24	1020	312	1	35	
8	0	0	0	0	31	28	1020	312	1	35	
9	0	0	0	0	28	24	1020	312	1	35	
10	0	0	0	0	28	24	1020	312	1	35	
11	0	0	0	0	28	24	1020	312	1	35	
12	0	0	0	0	28	24	1020	312	1	35	
13	0	0	0	0	24	24	1020	312	1	35	
14	0	0	0	0	28	24	1020	312	1	35	
15	0	0	0	0	28	24	1020	312	1	35	
0	0	0	0	0	28	24	868	312	1	35	
1	0	0	0	0	31	28	211	312	1	35	
2	0	0	0	0	28	24	0	312	1	35	
3	0	0	0	0	28	24	0	312	1	35	
4	0	0	0	0	28	24	0	312	1	35	
5	0	0	0	0	28	24	0	312	1	35	
6	0	0	0	0	31	28	248	312	1	35	
7	0	0	0	0	28	24	920	312	1	35	
8	0	0	0	0	28	24	1020	312	1	35	
9	0	0	0	0	31	28	1020	312	1	35	
10	0	0	0	0	31	28	1020	312	1	35	
11	0	0	0	0	28	24	1020	312	1	35	
12	0	0	0	0	28	24	1020	312	1	35	
13	0	0	0	0	28	24	1020	312	1	35	
14	0	0	0	0	27	24	1020	312	1	35	
15	0	0	0	0	28	24	1020	312	1	35	
0	0	0	0	0	31	28	1020	312	1	35	
1	0	0	0	0	31	28	1020	312	1	35	
2	0	0	0	0	31	28	1020	312	1	35	
3	0	0	0	0	31	28	1020	312	1	35	
4	0	0	0	0	28	24	878	312	1	35	
5	0	0	0	0	28	24	224	312	1	35	
6	0	0	0	0	28	24	0	312	1	35	
7	0	0	0	0	31	28	0	312	1	35	
8	0	0	0	0	28	24	0	312	1	35	
9	0	0	0	0	28	24	0	312	1	35	
10	0	0	0	0	28	24	448	312	1	35	
11	0	0	0	0	28	24	1020	312	1	35	
12	0	0	0	0	31	28	1020	312	1	35	
13	0	0	0	0	28	24	1020	312	1	35	
14	0	0	0	0	31	28	1020	312	1	35	
15	0	0	0	0	28	24	1020	312	1	35	
0	0	0	0	0	31	28	1020	312	1	35	
1	0	0	0	0	31	28	1020	312	1	35	
2	0	0	0	0	28	24	1020	312	1	35	
3	0	0	0	0	24	24	1020	312	1	35	
4	0	0	0	0	31	28	1020	312	1	35	
5	0	0	0	0	31	28	1020	312	1	35	
6	0	0	0	0	35	31	1020	312	1	35	
7	0	0	0	0	28	24	1020	312	1	35	
8	0	0	0	0	28	24	926	312	1	35	
9	0	0	0	0	28	24	300	312	1	35	
10	0	0	0	0	31	28	0	312	1	35	
11	0	0	0	0	28	24	0	312	1	35	
12	0	0	0	0	31	28	0	312	1	35	
13	0	0	0	0	31	28	0	312	1	35	
14	0	0	0	0	30	28	518	312	1	35	
15	0	0	0	0	35	31	1017	312	1	35	
0	0	0	0	0	28	24	1020	312	1	35	
1	0	0	0	0	28	24	1020	312	1	35	
2	0	0	0	0	28	24	1020	312	1	35	
3	0	0	0	0	28	24	1020	312	1	35	
4	0	0	0	0	28	24	1020	312	1	35	
5	0	0	0	0	31	28	1020	312	1	35	
6	0	0	0	0	28	24	1020	312	1	35	
7	0	0	0	0	28	24	1020	312	1	35	
8	0	0	0	0	28	24	1020	312	1	35	
9	0	0	0	0	28	24	1020	312	1	35	
10	0	0	0	0	35	31	1020	312	1	35	
11	0	0	0	0	28	24	1020	312	1	35	
12	0	0	0	0	28	24	967	312	1	35	
13	0	0	0	0	28	24	364	312	1	35	
14	0	0	0	0	28	24	0	312	1	35	
15	0	0	0	0	28	24	0	312	1	35	
0	0	0	0	0	31	28	0	312	1	35	
1	0	0	0	0	28	24	0	312	1	35	
2	0	0	0	0	28	24	505	312	1	35	
3	0	0	0	0	24	28	1020	312	1	35	
4	0	0	0	0	28	24	1020	312	1	35	
5	0	0	0	0	28	24	1020	312	1	35	
6	0	0	0	0	31	28	1020	312	1	35	
7	0	0	0	0	35	31	1020	312	1	35	
8	0	0	0	0	28	24	1020	312	1	35	
9	0	0	0	0	31	28	1020	312	1	35	
10	0	0	0	0	28	24	1020	312	1	35	
11	0	0	0	0	28	24	1020	312	1	35	
12	0	0	0	0	28	24	1020	312	1	35	
13	0	0	0	0	31	28	1020	312	1	35	
14	0	0	0	0	24	24	1020	312	1	35	
15	0	0	0	0	28	22	1022	312	1	35	
0	0	0	0	0	25	24	960	312	1	35	
1	0	0	0	0	24	24	335	312	1	35	
2	0	0	0	0	28	24	0	312	1	35	
3	0	0	0	0	31	28	0	312	1	35	
4	0	0	0	0	28	24	0	312	1	35	
5	0	0	0	0	31	28	0	312	1	35	
6	0	0	0	0	28	24	519	312	1	35	
7	0	0	0	0	28	24	1020	312	1	35	
8	0	0	0	0	28	24	1020	312	1	35	
9	0	0	0	0	31	28	1020	312	1	35	
10	0	0	0	0	31	28	1020	312	1	35	
11	0	0	0	0	28	24	1020	312	1	35	
12	0	0	0	0	28	24	1020	312	1	35	
13	0	0	0	0	28	24	1020	312	1	35	
14	0	0	0	0	28	24	1020	312	1	35	
15	0	0	0	0	28	24	1020	312	1	35	
0	0	0	0	0	28	24	1020	312	1	35	
1	0	0	0	0	31	28	1020	312	1	35	
2	0	0	0	0	28	24	1020	312	1	35	
3	0	0	0	0	28	28	1020	312	1	35	
4	0	0	0	0	28	24	984	312	1	35	
5	0	0	0	0	28	24	387	312	1	35	
6	0	0	0	0	31	28	0	312	1	35	
7	0	0	0	0	31	28	0	312	1	35	
8	0	0	0	0	31	28	0	312	1	35	
9	0	0	0	0	28	24	0	312	1	35	
10	0	0	0	0	35	31	384	312	1	35	
11	0	0	0	0	28	24	1020	312	1	35	
12	0	0	0	0	28	24	1020	312	1	35	
13	0	0	0	0	28	24	1020	312	1	35	
14	0	0	0	0	25	24	1020	312	1	35	
15	0	0	0	0	28	24	1020	312	1	35	
0	0	0	0	0	28	24	1020	312	1	35	
1	0	0	0	0	28	24	1020	312	1	35	
2	0	0	0	0	28	24	1020	312	1	35	
3	0	0	0	0	28	24	1020	312	1	35	
4	0	0	0	0	28	24	1020	312	1	35	
5	0	0	0	0	28	24	1020	312	1	35	
6	0	0	0	0	28	24	1020	312	1	35	
7	0	0	0	0	28	24	1020	312	1	35	
8	0	0	0	0	28	24	1006	312	1	35	
9	0	0	0	0	35	31	425	312	1	35	
10	0	0	0	0	28	24	0	312	1	35	
11	0	0	0	0	31	28	0	312	1	35	
12	0	0	0	0	31	28	0	312	1	35	
13	0	0	0	0	31	28	0	312	1	35	
14	0	0	0	0	28	24	448	312	1	35	
15	0	0	0	0	28	24	1020	312	1	35	
0	0	0	0	0	28	24	1020	312	1	35	
1	0	0	0	0	28	24	1020	312	1	35	
2	0	0	0	0	28	24	1020	312	1	35	
3	0	0	0	0	33	35	1020	312	1	35	
4	0	0	0	0	28	24	1020	312	1	35	
5	0	0	0	0	28	24	1020	312	1	35	
6	0	0	0	0	28	24	1020	312	1	35	
7	0	0	0	0	28	24	1020	312	1	35	
8	0	0	0	0	28	24	1020	312	1	35	
9	0	0	0	0	28	24	1020	312	1	35	
10	0	0	0	0	31	28	1020	312	1	35	
11	0	0	0	0	31	28	1020	312	1	35	
12	0	0	0	0	28	24	1016	312	1	35	
13	0	0	0	0	28	24	441	312	1	35	
14	0	0	0	0	31	28	1	312	1	35	
15	0	0	0	0	28	24	0	312	1	35	
0	0	0	0	0	28	24	0	312	1	35	
1	0	0	0	0	35	31	56	312	1	35	
2	0	0	0	0	28	24	591	312	1	35	
3	0	0	0	0	28	24	1020	312	1	35	
4	0	0	0	0	28	24	1020	312	1	35	
5	0	0	0	0	28	24	1020	312	1	35	
6	0	0	0	0	35	31	1020	312	1	35	
7	0	0	0	0	28	24	1020	312	1	35	
8	0	0	0	0	31	28	1020	312	1	35	
9	0	0	0	0	28	24	1020	312	1	35	
10	0	0	0	0	28	24	1020	312	1	35	
11	0	0	0	0	35	31	1017	312	1	35	
12	0	0	0	0	28	24	1020	312	1	35	
13	0	0	0	0	31	28	1020	312	1	35	
14	0	0	0	0	28	24	1020	312	1	35	
15	0	0	0	0	31	28	1020	312	1	35	
0	0	0	0	0	28	24	999	312	1	35	
1	0	0	0	0	31	28	415	312	1	35	
2	0	0	0	0	28	24	1	312	1	35	
3	0	0	0	0	24	24	0	312	1	35	
4	0	0	0	0	35	31	0	312	1	35	
5	0	0	0	0	28	24	19	312	1	35	
6	0	0	0	0	31	28	556	312	1	35	
7	0	0	0	0	28	24	1020	312	1	35	
8	0	0	0	0	28	24	1020	312	1	35	
9	0	0	0	0	28	24	1020	312	1	35	
10	0	0	0	0	31	28	1020	312	1	35	
11	0	0	0	0	28	24	1020	312	1	35	
12	0	0	0	0	28	24	1020	312	1	35	
13	0	0	0	0	28	24	1020	312	1	35	
14	0	0	0	0	30	28	1020	312	1	35	
15	0	0	0	0	28	24	1020	312	1	35	
0	0	0	0	0	31	28	1020	312	1	35	
1	0	0	0	0	31	28	1020	312	1	35	
2	0	0	0	0	28	24	1020	312	1	35	
3	0	0	0	0	31	24	1022	312	1	35	
4	0	0	0	0	31	28	960	312	1	35	
5	0	0	0	0	24	24	350	312	1	35	
6	0	0	0	0	28	24	0	312	1	35	
7	0	0	0	0	35	31	0	312	1	35	
8	0	0	0	0	28	24	0	312	1	35	
9	0	0	0	0	28	24	0	312	1	35	
10	0	0	0	0	28	24	376	312	1	35	
11	0	0	0	0	35	31	1017	312	1	35	
12	0	0	0	0	28	24	1020	312	1	35	
13	0	0	0	0	28	24	1020	312	1	35	
14	0	0	0	0	28	24	1020	312	1	35	
15	0	0	0	0	28	24	1020	312	1	35	
0	0	0	0	0	28	24	1020	312	1	35	
1	0	0	0	0	31	28	1020	312	1	35	
2	0	0	0	0	35	31	1017	312	1	35	
3	0	0	0	0	28	31	1020	312	1	35	
4	0	0	0	0	31	28	1020	312	1	35	
5	0	0	0	0	28	24	1020	312	1	35	
6	0	0	0	0	31	28	1020	312	1	35	
7	0	0	0	0	28	24	1020	312	1	35	
8	0	0	0	0	24	24	944	312	1	35	
9	0	0	0	0	28	24	327	312	1	35	
10	0	0	0	0	28	24	0	312	1	35	
11	0	0	0	0	24	24	0	312	1	35	
12	0	0	0	0	28	24	0	312	1	35	
13	0	0	0	0	24	24	0	312	1	35	
14	0	0	0	0	24	24	460	312	1	35	
15	0	0	0	0	28	24	1020	312	1	35	
0	0	0	0	0	28	24	1020	312	1	35	
1	0	0	0	0	28	24	1020	312	1	35	
2	0	0	0	0	28	24	1020	312	1	35	
3	0	0	0	0	28	24	1020	312	1	35	
4	0	0	0	0	31	28	1020	312	1	35	
5	0	0	0	0	35	31	1020	312	1	35	
6	0	0	0	0	35	31	1017	312	1	35	
7	0	0	0	0	28	24	1020	312	1	35	
8	0	0	0	0	28	24	1020	312	1	35	
9	0	0	0	0	28	24	1020	312	1	35	
10	0	0	0	0	28	24	1020	312	1	35	
11	0	0	0	0	31	28	1020	312	1	35	
12	0	0	0	0	31	28	872	312	1	35	
13	0	0	0	0	28	24	217	312	1	35	
14	0	0	0	0	28	24	0	312	1	35	
15	0	0	0	0	31	28	0	312	1	35	
0	0	0	0	0	28	24	0	312	1	35	
1	0	0	0	0	24	24	0	312	1	35	
2	0	0	0	0	28	24	286	312	1	35	
3	0	0	0	0	28	24	988	312	1	35	
4	0	0	0	0	28	24	1020	312	1	35	
5	0	0	0	0	28	24	1020	312	1	35	
6	0	0	0	0	35	31	1020	312	1	35	
7	0	0	0	0	28	24	1020	312	1	35	
8	0	0	0	0	28	24	1020	312	1	35	
9	0	0	0	0	28	24	1020	312	1	35	
10	0	0	0	0	24	24	1020	312	1	35	
11	0	0	0	0	28	24	1020	312	1	35	
12	0	0	0	0	24	24	1020	312	1	35	
13	0	0	0	0	28	24	1020	312	1	35	
14	0	0	0	0	33	31	1020	312	1	35	
15	0	0	0	0	28	24	1020	312	1	35	
0	0	0	0	0	28	24	839	312	1	35	
1	0	0	0	0	28	24	150	312	1	35	
2	0	0	0	0	31	28	0	312	1	35	
3	0	0	0	0	28	24	0	312	1	35	
4	0	0	0	0	28	24	0	312	1	35	
5	0	0	0	0	28	24	0	312	1	35	
6	0	0	0	0	31	28	204	312	1	35	
7	0	0	0	0	28	24	867	312	1	35	
8	0	0	0	0	28	24	1020	312	1	35	
9	0	0	0	0	24	24	1020	312	1	35	
10	0	0	0	0	28	24	1020	312	1	35	
11	0	0	0	0	31	28	1020	312	1	35	
12	0	0	0	0	28	24	1020	312	1	35	
13	0	0	0	0	31	28	1020	312	1	35	
14	0	0	0	0	28	24	1020	312	1	35	
15	0	0	0	0	28	24	1020	312	1	35	
0	0	0	0	0	28	24	1020	312	1	35	
1	0	0	0	0	31	28	1020	312	1	35	
2	0	0	0	0	28	24	1020	312	1	35	
3	0	0	0	0	24	24	1020	312	1	35	
4	0	0	0	0	28	24	828	312	1	35	
5	0	0	0	0	28	24	152	312	1	35	
6	0	0	0	0	31	28	0	312	1	35	
7	0	0	0	0	28	24	0	312	1	35	
8	0	0	0	0	31	28	0	312	1	35	
9	0	0	0	0	31	28	0	312	1	35	
10	0	0	0	0	28	24	243	312	1	35	
11	0	0	0	0	31	28	926	312	1	35	
12	0	0	0	0	28	24	1020	312	1	35	
13	0	0	0	0	31	28	1020	312	1	35	
14	0	0	0	0	25	24	1020	312	1	35	
15	0	0	0	0	28	24	1020	312	1	35	
0	0	0	0	0	28	24	1020	312	1	35	
1	0	0	0	0	35	31	1020	312	1	35	
2	0	0	0	0	31	28	1020	312	1	35	
3	0	0	0	0	31	28	1020	312	1	35	
4	0	0	0	0	31	28	1020	312	1	35	
5	0	0	0	0	28	24	1020	312	1	35	
6	0	0	0	0	31	28	1020	312	1	35	
7	0	0	0	0	28	22	1022	312	1	35	
8	0	0	0	0	31	28	871	312	1	35	
9	0	0	0	0	31	28	214	312	1	35	
10	0	0	0	0	28	24	0	312	1	35	
11	0	0	0	0	28	24	0	312	1	35	
12	0	0	0	0	28	24	0	312	1	35	
13	0	0	0	0	28	24	0	312	1	35	
14	0	0	0	0	28	24	310	312	1	35	
15	0	0	0	0	28	24	1016	312	1	35	
0	0	0	0	0	28	24	1020	312	1	35	
1	0	0	0	0	35	31	1020	312	1	35	
2	0	0	0	0	28	24	1020	312	1	35	
3	0	0	0	0	28	24	1020	312	1	35	
4	0	0	0	0	31	28	1020	312	1	35	
5	0	0	0	0	28	24	1020	312	1	35	
6	0	0	0	0	31	28	1020	312	1	35	
7	0	0	0	0	35	31	1017	312	1	35	
8	0	0	0	0	31	28	1020	312	1	35	
9	0	0	0	0	28	24	1020	312	1	35	
10	0	0	0	0	28	24	1020	312	1	35	
11	0	0	0	0	31	28	1020	312	1	35	
12	0	0	0	0	28	24	847	312	1	35	
13	0	0	0	0	31	28	182	312	1	35	
14	0	0	0	0	25	24	0	312	1	35	
15	0	0	0	0	28	24	0	312	1	35	
0	0	0	0	0	35	31	0	312	1	35	
1	0	0	0	0	31	28	0	312	1	35	
2	0	0	0	0	28	24	216	312	1	35	
3	0	0	0	0	31	28	888	312	1	35	
4	0	0	0	0	28	24	1020	312	1	35	
5	0	0	0	0	28	24	1020	312	1	35	
6	0	0	0	0	28	24	1020	312	1	35	
7	0	0	0	0	31	28	1020	312	1	35	
8	0	0	0	0	31	28	1020	312	1	35	
9	0	0	0	0	31	28	1020	312	1	35	
10	0	0	0	0	28	24	1020	312	1	35	
11	0	0	0	0	31	28	1020	312	1	35	
12	0	0	0	0	31	28	1020	312	1	35	
13	0	0	0	0	28	24	1020	312	1	35	
14	0	0	0	0	31	28	1020	312	1	35	
15	0	0	0	0	31	28	1020	312	1	35	
0	0	0	0	0	31	28	920	312	1	35	
1	0	0	0	0	28	24	287	312	1	35	
2	0	0	0	0	28	24	0	312	1	35	
3	0	0	0	0	24	24	0	312	1	35	
4	0	0	0	0	28	24	0	312	1	35	
5	0	0	0	0	31	28	0	312	1	35	
6	0	0	0	0	28	24	271	312	1	35	
7	0	0	0	0	28	24	956	312	1	35	
8	0	0	0	0	24	24	1020	312	1	35	
9	0	0	0	0	24	24	1020	312	1	35	
10	0	0	0	0	28	24	1020	312	1	35	
11	0	0	0	0	28	24	1020	312	1	35	
12	0	0	0	0	28	24	1020	312	1	35	
13	0	0	0	0	35	31	1020	312	1	35	
14	0	0	0	0	25	24	1020	312	1	35	
15	0	0	0	0	31	28	1020	312	1	35	
0	0	0	0	0	28	24	1020	312	1	35	
1	0	0	0	0	28	24	1020	312	1	35	
2	0	0	0	0	28	24	1020	312	1	35	
3	0	0	0	0	28	24	1020	312	1	35	
4	0	0	0	0	28	24	960	312	1	35	
5	0	0	0	0	28	24	352	312	1	35	
6	0	0	0	0	28	24	0	312	1	35	
7	0	0	0	0	28	24	0	312	1	35	
8	0	0	0	0	31	28	0	312	1	35	
9	0	0	0	0	28	24	0	312	1	35	
10	0	0	0	0	31	28	268	312	1	35	
11	0	0	0	0	24	24	963	312	1	35	
12	0	0	0	0	28	24	1020	312	1	35	
13	0	0	0	0	28	24	1020	312	1	35	
14	0	0	0	0	28	24	1020	312	1	35	
15	0	0	0	0	28	24	1020	312	1	35	
0	0	0	0	0	28	24	1020	312	1	35	
1	0	0	0	0	28	24	1020	312	1	35	
2	0	0	0	0	31	28	1020	312	1	35	
3	0	0	0	0	30	31	1020	312	1	35	
4	0	0	0	0	28	24	1020	312	1	35	
5	0	0	0	0	31	28	1020	312	1	35	
6	0	0	0	0	28	24	1020	312	1	35	
7	0	0	0	0	28	24	1020	312	1	35	
8	0	0	0	0	31	28	953	312	1	35	
9	0	0	0	0	28	24	344	312	1	35	
10	0	0	0	0	28	24	0	312	1	35	
11	0	0	0	0	28	24	0	312	1	35	
12	0	0	0	0	31	28	0	312	1	35	
13	0	0	0	0	28	24	0	312	1	35	
14	0	0	0	0	25	24	376	312	1	35	
15	0	0	0	0	35	31	1017	312	1	35	
0	0	0	0	0	31	28	1020	312	1	35	
1	0	0	0	0	28	24	1020	312	1	35	
2	0	0	0	0	28	24	1020	312	1	35	
3	0	0	0	0	28	24	1020	312	1	35	
4	0	0	0	0	24	24	1020	312	1	35	
5	0	0	0	0	28	24	1020	312	1	35	
6	0	0	0	0	28	24	1020	312	1	35	
7	0	0	0	0	31	28	1020	312	1	35	
8	0	0	0	0	31	28	1020	312	1	35	
9	0	0	0	0	31	28	1020	312	1	35	
10	0	0	0	0	35	31	1020	312	1	35	
11	0	0	0	0	24	22	1022	312	1	35	
12	0	0	0	0	28	24	1004	312	1	35	
13	0	0	0	0	31	28	423	312	1	35	
14	0	0	0	0	24	24	0	312	1	35	
15	0	0	0	0	28	24	0	312	1	35	
0	0	0	0	0	31	28	0	312	1	35	
1	0	0	0	0	28	24	0	312	1	35	
2	0	0	0	0	28	24	312	312	1	35	
3	0	0	0	0	24	24	1017	312	1	35	
4	0	0	0	0	28	24	1020	312	1	35	
5	0	0	0	0	28	24	1020	312	1	35	
6	0	0	0	0	28	24	1020	312	1	35	
7	0	0	0	0	28	24	1020	312	1	35	
8	0	0	0	0	28	24	1020	312	1	35	
9	0	0	0	0	28	24	1020	312	1	35	
10	0	0	0	0	28	24	1020	312	1	35	
11	0	0	0	0	24	24	1020	312	1	35	
12	0	0	0	0	28	24	1020	312	1	35	
13	0	0	0	0	24	24	1020	312	1	35	
14	0	0	0	0	25	24	1020	312	1	35	
15	0	0	0	0	24	24	1020	312	1	35	
0	0	0	0	0	31	28	1020	312	1	35	
1	0	0	0	0	31	28	435	312	1	35	
2	0	0	0	0	31	28	0	312	1	35	
3	0	0	0	0	28	24	0	312	1	35	
4	0	0	0	0	28	24	0	312	1	35	
5	0	0	0	0	28	24	0	312	1	35	
6	0	0	0	0	28	24	391	312	1	35	
7	0	0	0	0	31	28	1020	312	1	35	
8	0	0	0	0	28	24	1020	312	1	35	
9	0	0	0	0	28	24	1020	312	1	35	
10	0	0	0	0	24	24	1020	312	1	35	
11	0	0	0	0	28	24	1020	312	1	35	
12	0	0	0	0	31	28	1020	312	1	35	
13	0	0	0	0	31	28	1020	312	1	35	
14	0	0	0	0	28	24	1020	312	1	35	
15	0	0	0	0	31	28	1020	312	1	35	
0	0	0	0	0	28	24	1020	312	1	35	
1	0	0	0	0	28	24	1020	312	1	35	
2	0	0	0	0	31	28	1020	312	1	35	
3	0	0	0	0	24	28	1020	312	1	35	
4	0	0	0	0	28	24	984	312	1	35	
5	0	0	0	0	35	31	387	312	1	35	
6	0	0	0	0	28	24	0	312	1	35	
7	0	0	0	0	28	24	0	312	1	35	
8	0	0	0	0	28	24	0	312	1	35	
9	0	0	0	0	28	24	0	312	1	35	
10	0	0	0	0	28	24	335	312	1	35	
11	0	0	0	0	28	24	1020	312	1	35	
12	0	0	0	0	28	24	1020	312	1	35	
13	0	0	0	0	28	24	1020	312	1	35	
14	0	0	0	0	25	24	1020	312	1	35	
15	0	0	0	0	31	28	1020	312	1	35	
0	0	0	0	0	31	28	1020	312	1	35	
1	0	0	0	0	28	24	1020	312	1	35	
2	0	0	0	0	28	24	1020	312	1	35	
3	0	0	0	0	28	24	1020	312	1	35	
4	0	0	0	0	28	24	1020	312	1	35	
5	0	0	0	0	28	24	1020	312	1	35	
6	0	0	0	0	28	24	1020	312	1	35	
7	0	0	0	0	28	24	1020	312	1	35	
8	0	0	0	0	28	24	999	312	1	35	
9	0	0	0	0	24	24	414	312	1	35	
10	0	0	0	0	31	28	0	312	1	35	
11	0	0	0	0	28	24	0	312	1	35	
12	0	0	0	0	28	24	0	312	1	35	
13	0	0	0	0	31	28	0	312	1	35	
14	0	0	0	0	28	24	312	312	1	35	
15	0	0	0	0	31	28	1016	312	1	35	
0	0	0	0	0	28	24	1020	312	1	35	
1	0	0	0	0	28	24	1020	312	1	35	
2	0	0	0	0	28	24	1020	312	1	35	
3	0	0	0	0	31	31	1020	312	1	35	
4	0	0	0	0	28	24	1020	312	1	35	
5	0	0	0	0	28	24	1020	312	1	35	
6	0	0	0	0	35	31	1017	312	1	35	
7	0	0	0	0	28	24	1020	312	1	35	
8	0	0	0	0	28	24	1020	312	1	35	
9	0	0	0	0	28	24	1020	312	1	35	
10	0	0	0	0	28	24	1020	312	1	35	
11	0	0	0	0	24	24	1020	312	1	35	
12	0	0	0	0	28	24	1016	312	1	35	
13	0	0	0	0	24	24	438	312	1	35	
14	0	0	0	0	24	24	0	312	1	35	
15	0	0	0	0	24	24	0	312	1	35	
0	0	0	0	0	28	24	0	312	1	35	
1	0	0	0	0	35	31	0	312	1	35	
2	0	0	0	0	24	24	323	312	1	35	
3	0	0	0	0	31	28	1020	312	1	35	
4	0	0	0	0	28	24	1020	312	1	35	
5	0	0	0	0	31	28	1020	312	1	35	
6	0	0	0	0	28	24	1020	312	1	35	
7	0	0	0	0	31	28	1020	312	1	35	
8	0	0	0	0	19	24	1020	312	1	35	
9	0	0	0	0	28	24	1020	312	1	35	
10	0	0	0	0	24	24	1020	312	1	35	
11	0	0	0	0	35	31	1017	312	1	35	
12	0	0	0	0	28	24	1020	312	1	35	
13	0	0	0	0	28	24	1020	312	1	35	
14	0	0	0	0	28	24	1020	312	1	35	
15	0	0	0	0	28	22	1022	312	1	35	
0	0	0	0	0	31	28	992	312	1	35	
1	0	0	0	0	24	24	403	312	1	35	
2	0	0	0	0	28	24	0	312	1	35	
3	0	0	0	0	28	31	0	312	1	35	
4	0	0	0	0	28	24	0	312	1	35	
5	0	0	0	0	28	24	0	312	1	35	
6	0	0	0	0	28	24	240	312	1	35	
7	0	0	0	0	28	24	903	312	1	35	
8	0	0	0	0	31	28	1020	312	1	35	
9	0	0	0	0	28	24	1020	312	1	35	
10	0	0	0	0	28	24	1020	312	1	35	
11	0	0	0	0	28	24	1020	312	1	35	
12	0	0	0	0	28	24	1020	312	1	35	
13	0	0	0	0	28	24	1020	312	1	35	
14	0	0	0	0	25	24	1020	312	1	35	
15	0	0	0	0	35	31	1017	312	1	35	
0	0	0	0	0	28	24	1020	312	1	35	
1	0	0	0	0	24	24	1020	312	1	35	
2	0	0	0	0	28	24	1020	312	1	35	
3	0	0	0	0	31	28	1020	312	1	35	
4	0	0	0	0	28	24	927	312	1	35	
5	0	0	0	0	28	24	302	312	1	35	
6	0	0	0	0	28	24	0	312	1	35	
7	0	0	0	0	31	28	0	312	1	35	
8	0	0	0	0	31	28	0	312	1	35	
9	0	0	0	0	28	24	0	312	1	35	
10	0	0	0	0	35	31	199	312	1	35	
11	0	0	0	0	31	28	867	312	1	35	
12	0	0	0	0	28	24	1020	312	1	35	
13	0	0	0	0	35	31	1020	312	1	35	
14	0	0	0	0	28	24	1020	312	1	35	
15	0	0	0	0	24	24	1020	312	1	35	
0	0	0	0	0	31	28	1020	312	1	35	
1	0	0	0	0	28	24	1020	312	1	35	
2	0	0	0	0	28	24	1020	312	1	35	
3	0	0	0	0	28	24	1020	312	1	35	
4	0	0	0	0	31	28	1020	312	1	35	
5	0	0	0	0	31	28	1020	312	1	35	
6	0	0	0	0	31	28	1020	312	1	35	
7	0	0	0	0	31	28	1020	312	1	35	
8	0	0	0	0	28	24	940	312	1	35	
9	0	0	0	0	28	24	319	312	1	35	
10	0	0	0	0	28	24	0	312	1	35	
11	0	0	0	0	28	24	0	312	1	35	
12	0	0	0	0	31	28	0	312	1	35	
13	0	0	0	0	28	24	0	312	1	35	
14	0	0	0	0	30	28	192	312	1	35	
15	0	0	0	0	28	24	849	312	1	35	
0	0	0	0	0	31	28	1020	312	1	35	
1	0	0	0	0	24	24	1020	312	1	35	
2	0	0	0	0	28	24	1020	312	1	35	
3	0	0	0	0	28	24	1020	312	1	35	
4	0	0	0	0	31	28	1020	312	1	35	
5	0	0	0	0	28	24	1020	312	1	35	
6	0	0	0	0	31	28	1020	312	1	35	
7	0	0	0	0	31	28	1020	312	1	35	
8	0	0	0	0	28	24	1020	312	1	35	
9	0	0	0	0	31	28	1020	312	1	35	
10	0	0	0	0	28	24	1020	312	1	35	
11	0	0	0	0	31	28	1020	312	1	35	
12	0	0	0	0	28	24	923	312	1	35	
13	0	0	0	0	31	28	294	312	1	35	
14	0	0	0	0	31	28	0	312	1	35	
15	0	0	0	0	24	24	0	312	1	35	
0	0	0	0	0	28	24	0	312	1	35	
1	0	0	0	0	31	28	0	312	1	35	
2	0	0	0	0	28	24	163	312	1	35	
3	0	0	0	0	24	24	806	312	1	35	
4	0	0	0	0	28	24	1020	312	1	35	
5	0	0	0	0	28	24	1020	312	1	35	
6	0	0	0	0	28	24	1020	312	1	35	
7	0	0	0	0	24	24	1020	312	1	35	
8	0	0	0	0	31	28	1020	312	1	35	
9	0	0	0	0	24	24	1020	312	1	35	
10	0	0	0	0	28	24	1020	312	1	35	
11	0	0	0	0	28	24	1020	312	1	35	
12	0	0	0	0	31	28	1020	312	1	35	
13	0	0	0	0	31	28	1020	312	1	35	
14	0	0	0	0	25	24	1020	312	1	35	
15	0	0	0	0	31	28	1020	312	1	35	
0	0	0	0	0	24	24	944	312	1	35	
1	0	0	0	0	28	24	312	312	1	35	
2	0	0	0	0	24	24	0	312	1	35	
3	0	0	0	0	28	24	0	312	1	35	
4	0	0	0	0	28	24	0	312	1	35	
5	0	0	0	0	28	24	0	312	1	35	
6	0	0	0	0	31	28	263	312	1	35	
7	0	0	0	0	31	28	952	312	1	35	
8	0	0	0	0	28	24	1020	312	1	35	
9	0	0	0	0	28	24	1020	312	1	35	
10	0	0	0	0	31	28	1020	312	1	35	
11	0	0	0	0	31	28	1020	312	1	35	
12	0	0	0	0	31	28	1020	312	1	35	
13	0	0	0	0	31	28	1020	312	1	35	
14	0	0	0	0	31	28	1020	312	1	35	
15	0	0	0	0	31	28	1020	312	1	35	
0	0	0	0	0	28	24	1020	312	1	35	
1	0	0	0	0	28	24	1020	312	1	35	
2	0	0	0	0	28	24	1020	312	1	35	
3	0	0	0	0	28	22	1022	312	1	35	
4	0	0	0	0	24	24	984	312	1	35	
5	0	0	0	0	28	24	391	312	1	35	
6	0	0	0	0	31	28	0	312	1	35	
7	0	0	0	0	28	24	0	312	1	35	
8	0	0	0	0	24	24	0	312	1	35	
9	0	0	0	0	28	24	0	312	1	35	
10	0	0	0	0	28	24	280	312	1	35	
11	0	0	0	0	28	24	975	312	1	35	
12	0	0	0	0	28	24	1020	312	1	35	
13	0	0	0	0	28	24	1020	312	1	35	
14	0	0	0	0	35	31	1020	312	1	35	
15	0	0	0	0	28	24	1020	312	1	35	
0	0	0	0	0	28	24	1020	312	1	35	
1	0	0	0	0	24	24	1020	312	1	35	
2	0	0	0	0	28	24	1020	312	1	35	
3	0	0	0	0	28	24	1020	312	1	35	
4	0	0	0	0	28	24	1020	312	1	35	
5	0	0	0	0	28	24	1020	312	1	35	
6	0	0	0	0	28	24	1020	312	1	35	
7	0	0	0	0	28	24	1020	312	1	35	
8	0	0	0	0	28	24	966	312	1	35	
9	0	0	0	0	35	31	359	312	1	35	
10	0	0	0	0	28	24	0	312	1	35	
11	0	0	0	0	31	28	0	312	1	35	
12	0	0	0	0	35	31	0	312	2	35	
13	0	0	0	0	31	28	0	312	1	35	
14	0	0	0	0	28	24	79	312	1	35	
15	0	0	0	0	28	24	675	312	1	35	
0	0	0	0	0	28	24	1020	312	1	35	
1	0	0	0	0	35	31	1020	312	1	35	
2	0	0	0	0	28	24	1020	312	1	35	
3	0	0	0	0	24	24	1020	312	1	35	
4	0	0	0	0	31	28	1020	312	1	35	
5	0	0	0	0	28	24	1020	312	1	35	
6	0	0	0	0	31	28	1020	312	1	35	
7	0	0	0	0	28	24	1020	312	1	35	
8	0	0	0	0	28	24	1020	312	1	35	
9	0	0	0	0	24	24	1020	312	1	35	
10	0	0	0	0	28	24	1020	312	1	35	
11	0	0	0	0	35	31	1020	312	1	35	
12	0	0	0	0	28	24	870	312	1	35	
13	0	0	0	0	31	28	211	312	1	35	
14	0	0	0	0	25	24	0	312	1	35	
15	0	0	0	0	28	24	0	312	1	35	
0	0	0	0	0	28	24	0	312	1	35	
1	0	0	0	0	28	24	0	312	1	35	
2	0	0	0	0	28	24	112	312	1	35	
3	0	0	0	0	28	24	729	312	1	35	
4	0	0	0	0	28	24	1020	312	1	35	
5	0	0	0	0	31	28	1020	312	1	35	
6	0	0	0	0	31	28	1020	312	1	35	
7	0	0	0	0	28	24	1020	312	1	35	
8	0	0	0	0	28	24	1020	312	1	35	
9	0	0	0	0	28	24	1020	312	1	35	
10	0	0	0	0	28	24	1020	312	1	35	
11	0	0	0	0	28	24	1020	312	1	35	
12	0	0	0	0	28	24	1020	312	1	35	
13	0	0	0	0	28	24	1020	312	1	35	
14	0	0	0	0	31	28	1020	312	1	35	
15	0	0	0	0	31	28	1020	312	1	35	
0	0	0	0	0	35	31	972	312	1	35	
1	0	0	0	0	28	24	376	312	1	35	
2	0	0	0	0	28	24	0	312	1	35	
3	0	0	0	0	24	28	0	312	1	35	
4	0	0	0	0	24	24	0	312	1	35	
5	0	0	0	0	28	24	0	312	1	35	
6	0	0	0	0	28	24	344	312	1	35	
7	0	0	0	0	35	31	1017	312	1	35	
8	0	0	0	0	31	28	1020	312	1	35	
9	0	0	0	0	35	31	1020	312	1	35	
10	0	0	0	0	31	28	1020	312	1	35	
11	0	0	0	0	31	28	1020	312	1	35	
12	0	0	0	0	28	24	1020	312	1	35	
13	0	0	0	0	35	31	1020	312	1	35	
14	0	0	0	0	24	24	1020	312	1	35	
15	0	0	0	0	28	24	1020	312	1	35	
0	0	0	0	0	28	24	1020	312	1	35	
1	0	0	0	0	35	31	1020	312	1	35	
2	0	0	0	0	28	24	1020	312	1	35	
3	0	0	0	0	28	24	1020	312	1	35	
4	0	0	0	0	28	24	985	312	1	35	
5	0	0	0	0	28	24	391	312	1	35	
6	0	0	0	0	24	24	0	312	1	35	
7	0	0	0	0	28	24	0	312	1	35	
8	0	0	0	0	35	31	0	312	1	35	
9	0	0	0	0	28	24	0	312	1	35	
10	0	0	0	0	28	24	240	312	1	35	
11	0	0	0	0	28	24	920	312	1	35	
12	0	0	0	0	31	28	1020	312	1	35	
13	0	0	0	0	28	24	1020	312	1	35	
14	0	0	0	0	28	24	1020	312	1	35	
15	0	0	0	0	28	24	1020	312	1	35	
0	0	0	0	0	28	24	1020	312	1	35	
1	0	0	0	0	35	31	1020	312	1	35	
2	0	0	0	0	28	24	1020	312	1	35	
3	0	0	0	0	28	28	1020	312	1	35	
4	0	0	0	0	28	24	1020	312	1	35	
5	0	0	0	0	31	28	1020	312	1	35	
6	0	0	0	0	31	28	1020	312	1	35	
7	0	0	0	0	28	22	1022	312	1	35	
8	0	0	0	0	31	28	963	312	1	35	
9	0	0	0	0	28	24	358	312	1	35	
10	0	0	0	0	28	24	0	312	1	35	
11	0	0	0	0	31	28	0	312	1	35	
12	0	0	0	0	28	24	0	312	1	35	
13	0	0	0	0	31	28	0	312	1	35	
14	0	0	0	0	30	28	63	312	1	35	
15	0	0	0	0	28	24	652	312	1	35	
0	0	0	0	0	28	24	1020	312	1	35	
1	0	0	0	0	24	24	1020	312	1	35	
2	0	0	0	0	35	31	1020	312	1	35	
3	0	0	0	0	28	24	1020	312	1	35	
4	0	0	0	0	28	24	1020	312	1	35	
5	0	0	0	0	28	24	1020	312	1	35	
6	0	0	0	0	28	24	1020	312	1	35	
7	0	0	0	0	28	24	1020	312	1	35	
8	0	0	0	0	28	24	1020	312	1	35	
9	0	0	0	0	28	24	1020	312	1	35	
10	0	0	0	0	28	24	1020	312	1	35	
11	0	0	0	0	35	31	1020	312	1	35	
12	0	0	0	0	28	24	867	312	1	35	
13	0	0	0	0	28	24	207	312	1	35	
14	0	0	0	0	28	24	0	312	1	35	
15	0	0	0	0	31	28	0	312	1	35	
0	0	0	0	0	28	24	0	312	1	35	
1	0	0	0	0	31	28	0	312	1	35	
2	0	0	0	0	24	24	63	312	1	35	
3	0	0	0	0	28	31	652	312	1	35	
4	0	0	0	0	31	28	1020	312	1	35	
5	0	0	0	0	28	24	1020	312	1	35	
6	0	0	0	0	35	31	1020	312	1	35	
7	0	0	0	0	31	28	1020	312	1	35	
8	0	0	0	0	28	24	1020	312	1	35	
9	0	0	0	0	28	24	1020	312	1	35	
10	0	0	0	0	28	24	1020	312	1	35	
11	0	0	0	0	28	24	1020	312	1	35	
12	0	0	0	0	31	28	1020	312	1	35	
13	0	0	0	0	35	31	1020	312	1	35	
14	0	0	0	0	31	28	1020	312	1	35	
15	0	0	0	0	31	28	1020	312	1	35	
0	0	0	0	0	28	24	972	312	1	35	
1	0	0	0	0	35	31	355	312	1	35	
2	0	0	0	0	28	24	0	312	1	35	
3	0	0	0	0	24	24	0	312	1	35	
4	0	0	0	0	28	24	0	312	1	35	
5	0	0	0	0	31	28	0	312	1	35	
6	0	0	0	0	35	31	163	312	1	35	
7	0	0	0	0	28	24	807	312	1	35	
8	0	0	0	0	31	28	1020	312	1	35	
9	0	0	0	0	28	24	1020	312	1	35	
10	0	0	0	0	31	28	1020	312	1	35	
11	0	0	0	0	28	24	1020	312	1	35	
12	0	0	0	0	28	24	1020	312	1	35	
13	0	0	0	0	28	24	1020	312	1	35	
14	0	0	0	0	28	24	1020	312	1	35	
15	0	0	0	0	31	28	1020	312	1	35	
0	0	0	0	0	24	24	1020	312	1	35	
1	0	0	0	0	24	24	1020	312	1	35	
2	0	0	0	0	28	24	1020	312	1	35	
3	0	0	0	0	19	25	1020	312	1	35	
4	0	0	0	0	24	24	1020	312	1	35	
5	0	0	0	0	28	24	513	312	1	35	
6	0	0	0	0	31	28	0	312	1	35	
7	0	0	0	0	31	28	0	312	1	35	
8	0	0	0	0	24	24	0	312	1	35	
9	0	0	0	0	28	24	0	312	1	35	
10	0	0	0	0	28	24	214	312	1	35	
11	0	0	0	0	28	24	876	312	1	35	
12	0	0	0	0	28	24	1020	312	1	35	
13	0	0	0	0	28	24	1020	312	1	35	
14	0	0	0	0	24	24	1020	312	1	35	
15	0	0	0	0	28	24	1020	312	1	35	
0	0	0	0	0	35	31	1020	312	1	35	
1	0	0	0	0	28	24	1020	312	1	35	
2	0	0	0	0	28	24	1020	312	1	35	
3	0	0	0	0	31	28	1020	312	1	35	
4	0	0	0	0	28	24	1020	312	1	35	
5	0	0	0	0	28	24	1020	312	1	35	
6	0	0	0	0	31	28	1020	312	1	35	
7	0	0	0	0	28	24	1020	312	1	35	
8	0	0	0	0	28	24	1020	312	1	35	
9	0	0	0	0	24	24	480	312	1	35	
10	0	0	0	0	28	24	0	312	1	35	
11	0	0	0	0	31	28	0	312	1	35	
12	0	0	0	0	28	24	0	312	1	35	
13	0	0	0	0	31	28	0	312	1	35	
14	0	0	0	0	31	28	159	312	1	35	
15	0	0	0	0	31	28	793	312	1	35	
0	0	0	0	0	28	24	1020	312	1	35	
1	0	0	0	0	28	24	1020	312	1	35	
2	0	0	0	0	35	31	1020	312	1	35	
3	0	0	0	0	24	28	1020	312	1	35	
4	0	0	0	0	28	24	1020	312	1	35	
5	0	0	0	0	28	24	1020	312	1	35	
6	0	0	0	0	31	28	1020	312	1	35	
7	0	0	0	0	28	24	1020	312	1	35	
8	0	0	0	0	28	24	1020	312	1	35	
9	0	0	0	0	28	24	1020	312	1	35	
10	0	0	0	0	28	24	1020	312	1	35	
11	0	0	0	0	24	22	1022	312	1	35	
12	0	0	0	0	28	24	1020	312	1	35	
13	0	0	0	0	28	24	547	312	1	35	
14	0	0	0	0	25	24	0	312	1	35	
15	0	0	0	0	28	24	0	312	1	35	
0	0	0	0	0	31	28	0	312	1	35	
1	0	0	0	0	28	24	0	312	1	35	
2	0	0	0	0	28	24	201	312	1	35	
3	0	0	0	0	28	24	860	312	1	35	
4	0	0	0	0	28	24	1020	312	1	35	
5	0	0	0	0	31	28	1020	312	1	35	
6	0	0	0	0	28	24	1020	312	1	35	
7	0	0	0	0	28	24	1020	312	1	35	
8	0	0	0	0	28	24	1020	312	1	35	
9	0	0	0	0	31	28	1020	312	1	35	
10	0	0	0	0	28	24	1020	312	1	35	
11	0	0	0	0	31	28	1020	312	1	35	
12	0	0	0	0	31	28	1020	312	1	35	
13	0	0	0	0	31	28	1020	312	1	35	
14	0	0	0	0	31	28	1020	312	1	35	
15	0	0	0	0	28	24	1020	312	1	35	
0	0	0	0	0	28	24	1020	312	1	35	
1	0	0	0	0	35	31	568	312	1	35	
2	0	0	0	0	28	24	1	312	1	35	
3	0	0	0	0	31	28	0	312	1	35	
4	0	0	0	0	31	28	0	312	1	35	
5	0	0	0	0	31	28	0	312	1	35	
6	0	0	0	0	24	24	222	312	1	35	
7	0	0	0	0	28	24	876	312	1	35	
8	0	0	0	0	28	24	1020	312	1	35	
9	0	0	0	0	35	31	1020	312	1	35	
10	0	0	0	0	28	24	1020	312	1	35	
11	0	0	0	0	31	28	1020	312	1	35	
12	0	0	0	0	35	31	1020	312	1	35	
13	0	0	0	0	31	28	1020	312	1	35	
14	0	0	0	0	24	24	1020	312	1	35	
15	0	0	0	0	28	24	1020	312	1	35	
0	0	0	0	0	24	24	1020	312	1	35	
1	0	0	0	0	35	31	1020	312	1	35	
2	0	0	0	0	28	24	1020	312	1	35	
3	0	0	0	0	31	28	1020	312	1	35	
4	0	0	0	0	31	28	1020	312	1	35	
5	0	0	0	0	35	31	600	312	1	35	
6	0	0	0	0	31	28	1	312	1	35	
7	0	0	0	0	24	24	0	312	1	35	
8	0	0	0	0	31	28	0	312	1	35	
9	0	0	0	0	31	28	0	312	1	35	
10	0	0	0	0	31	28	248	312	1	35	
11	0	0	0	0	31	28	927	312	1	35	
12	0	0	0	0	28	24	1020	312	1	35	
13	0	0	0	0	24	24	1020	312	1	35	
14	0	0	0	0	28	24	1020	312	1	35	
15	0	0	0	0	31	28	1020	312	1	35	
0	0	0	0	0	28	24	1020	312	1	35	
1	0	0	0	0	28	24	1020	312	1	35	
2	0	0	0	0	28	24	1020	312	1	35	
3	0	0	0	0	24	24	1020	312	1	35	
4	0	0	0	0	28	24	1020	312	1	35	
5	0	0	0	0	28	24	1020	312	1	35	
6	0	0	0	0	28	24	1020	312	1	35	
7	0	0	0	0	31	28	1020	312	1	35	
8	0	0	0	0	31	28	1020	312	1	35	
9	0	0	0	0	28	24	654	312	1	35	
10	0	0	0	0	28	24	1	312	1	35	
11	0	0	0	0	28	24	0	312	1	35	
12	0	0	0	0	28	24	0	312	1	35	
13	0	0	0	0	28	24	0	312	1	35	
14	0	0	0	0	25	24	319	312	1	35	
15	0	0	0	0	24	24	1020	312	1	35	
0	0	0	0	0	31	28	1020	312	1	35	
1	0	0	0	0	28	24	1020	312	1	35	
2	0	0	0	0	28	24	1020	312	1	35	
3	0	0	0	0	31	28	1020	312	1	35	
4	0	0	0	0	28	24	1020	312	1	35	
5	0	0	0	0	28	24	1020	312	1	35	
6	0	0	0	0	28	24	1020	312	1	35	
7	0	0	0	0	28	24	1020	312	1	35	
8	0	0	0	0	28	24	1020	312	1	35	
9	0	0	0	0	31	28	1020	312	1	35	
10	0	0	0	0	28	24	1020	312	1	35	
11	0	0	0	0	35	31	1020	312	1	35	
12	0	0	0	0	28	24	1020	312	1	35	
13	0	0	0	0	31	28	624	312	1	35	
14	0	0	0	0	31	28	1	312	1	35	
15	0	0	0	0	28	24	0	312	1	35	
0	0	0	0	0	31	28	0	312	1	35	
1	0	0	0	0	28	24	0	312	1	35	
2	0	0	0	0	28	24	192	312	1	35	
3	0	0	0	0	31	28	839	312	1	35	
4	0	0	0	0	28	24	1020	312	1	35	
5	0	0	0	0	24	24	1020	312	1	35	
6	0	0	0	0	31	28	1020	312	1	35	
7	0	0	0	0	31	28	1020	312	1	35	
8	0	0	0	0	28	24	1020	312	1	35	
9	0	0	0	0	31	28	1020	312	1	35	
10	0	0	0	0	24	24	1020	312	1	35	
11	0	0	0	0	28	24	1020	312	1	35	
12	0	0	0	0	35	31	1019	312	1	35	
13	0	0	0	0	28	24	1020	312	1	35	
14	0	0	0	0	27	24	1020	312	1	35	
15	0	0	0	0	31	24	1022	312	1	35	
0	0	0	0	0	25	24	1020	312	1	35	
1	0	0	0	0	31	28	572	312	1	35	
2	0	0	0	0	28	24	0	312	1	35	
3	0	0	0	0	28	24	0	312	1	35	
4	0	0	0	0	35	31	0	312	1	35	
5	0	0	0	0	24	24	0	312	1	35	
6	0	0	0	0	28	24	152	312	1	35	
7	0	0	0	0	28	24	780	312	1	35	
8	0	0	0	0	31	28	1020	312	1	35	
9	0	0	0	0	28	24	1020	312	1	35	
10	0	0	0	0	28	24	1020	312	1	35	
11	0	0	0	0	28	24	1020	312	1	35	
12	0	0	0	0	31	28	1020	312	1	35	
13	0	0	0	0	24	24	1020	312	1	35	
14	0	0	0	0	28	24	1020	312	1	35	
15	0	0	0	0	24	24	1020	312	1	35	
0	0	0	0	0	28	24	1020	312	1	35	
1	0	0	0	0	31	28	1020	312	1	35	
2	0	0	0	0	24	24	1020	312	1	35	
3	0	0	0	0	24	24	1020	312	1	35	
4	0	0	0	0	28	24	1020	312	1	35	
5	0	0	0	0	28	24	688	312	1	35	
6	0	0	0	0	31	28	1	312	1	35	
7	0	0	0	0	28	24	0	312	1	35	
8	0	0	0	0	28	24	0	312	1	35	
9	0	0	0	0	28	24	0	312	1	35	
10	0	0	0	0	24	24	387	312	1	35	
11	0	0	0	0	35	31	1017	312	1	35	
12	0	0	0	0	28	24	1020	312	1	35	
13	0	0	0	0	31	28	1020	312	1	35	
14	0	0	0	0	30	28	1020	312	1	35	
15	0	0	0	0	31	28	1020	312	1	35	
0	0	0	0	0	28	24	1020	312	1	35	
1	0	0	0	0	31	28	1020	312	1	35	
2	0	0	0	0	28	24	1020	312	1	35	
3	0	0	0	0	31	28	1020	312	1	35	
4	0	0	0	0	28	24	1020	312	1	35	
5	0	0	0	0	28	24	1020	312	1	35	
6	0	0	0	0	31	28	1020	312	1	35	
7	0	0	0	0	28	24	1020	312	1	35	
8	0	0	0	0	28	24	1020	312	1	35	
9	0	0	0	0	31	28	755	312	1	35	
10	0	0	0	0	28	24	71	312	1	35	
11	0	0	0	0	28	24	0	312	1	35	
12	0	0	0	0	28	24	0	312	1	35	
13	0	0	0	0	28	24	0	312	1	35	
14	0	0	0	0	24	24	297	312	1	35	
15	0	0	0	0	28	24	988	312	1	35	
0	0	0	0	0	28	24	1020	312	1	35	
1	0	0	0	0	35	31	1020	312	1	35	
2	0	0	0	0	28	24	1020	312	1	35	
3	0	0	0	0	24	28	1020	312	1	35	
4	0	0	0	0	28	24	1020	312	1	35	
5	0	0	0	0	28	24	1020	312	1	35	
6	0	0	0	0	28	24	1020	312	1	35	
7	0	0	0	0	35	31	1017	312	1	35	
8	0	0	0	0	31	28	1020	312	1	35	
9	0	0	0	0	28	24	1020	312	1	35	
10	0	0	0	0	28	24	1020	312	1	35	
11	0	0	0	0	31	28	1020	312	1	35	
12	0	0	0	0	28	24	1020	312	1	35	
13	0	0	0	0	28	24	787	312	1	35	
14	0	0	0	0	31	28	112	312	1	35	
15	0	0	0	0	24	24	0	312	1	35	
0	0	0	0	0	31	28	0	312	1	35	
1	0	0	0	0	28	24	0	312	1	35	
2	0	0	0	0	31	28	231	312	1	35	
3	0	0	0	0	28	24	896	312	1	35	
4	0	0	0	0	31	28	1020	312	1	35	
5	0	0	0	0	28	24	1020	312	1	35	
6	0	0	0	0	28	24	1020	312	1	35	
7	0	0	0	0	28	24	1020	312	1	35	
8	0	0	0	0	31	28	1020	312	1	35	
9	0	0	0	0	28	24	1020	312	1	35	
10	0	0	0	0	28	24	1020	312	1	35	
11	0	0	0	0	35	31	1017	312	1	35	
12	0	0	0	0	31	28	1020	312	1	35	
13	0	0	0	0	28	24	1020	312	1	35	
14	0	0	0	0	28	24	1020	312	1	35	
15	0	0	0	0	28	24	1020	312	1	35	
0	0	0	0	0	28	24	1020	312	1	35	
1	0	0	0	0	28	24	639	312	1	35	
2	0	0	0	0	28	24	0	312	1	35	
3	0	0	0	0	24	24	0	312	1	35	
4	0	0	0	0	28	24	0	312	1	35	
5	0	0	0	0	31	28	0	312	1	35	
6	0	0	0	0	28	24	79	312	1	35	
7	0	0	0	0	28	24	655	312	1	35	
8	0	0	0	0	31	28	1020	312	1	35	
9	0	0	0	0	28	24	1020	312	1	35	
10	0	0	0	0	28	24	1020	312	1	35	
11	0	0	0	0	28	24	1020	312	1	35	
12	0	0	0	0	31	28	1020	312	1	35	
13	0	0	0	0	28	24	1020	312	1	35	
14	0	0	0	0	25	24	1020	312	1	35	
15	0	0	0	0	28	24	1020	312	1	35	
0	0	0	0	0	28	24	1020	312	1	35	
1	0	0	0	0	31	28	1020	312	1	35	
2	0	0	0	0	28	24	1020	312	1	35	
3	0	0	0	0	31	24	1022	312	1	35	
4	0	0	0	0	28	24	1020	312	1	35	
5	0	0	0	0	28	24	595	312	1	35	
6	0	0	0	0	31	28	1	312	1	35	
7	0	0	0	0	24	24	0	312	1	35	
8	0	0	0	0	28	24	0	312	1	35	
9	0	0	0	0	24	24	0	312	1	35	
10	0	0	0	0	28	24	142	312	1	35	
11	0	0	0	0	35	31	768	312	1	35	
12	0	0	0	0	28	24	1020	312	1	35	
13	0	0	0	0	31	28	1020	312	1	35	
14	0	0	0	0	28	24	1020	312	1	35	
15	0	0	0	0	31	28	1020	312	1	35	
0	0	0	0	0	28	24	1020	312	1	35	
1	0	0	0	0	31	28	1020	312	1	35	
2	0	0	0	0	24	24	1020	312	1	35	
3	0	0	0	0	24	28	1020	312	1	35	
4	0	0	0	0	35	31	1017	312	1	35	
5	0	0	0	0	24	24	1020	312	1	35	
6	0	0	0	0	31	28	1020	312	1	35	
7	0	0	0	0	31	28	1020	312	1	35	
8	0	0	0	0	28	24	1020	312	1	35	
9	0	0	0	0	28	24	748	312	1	35	
10	0	0	0	0	28	24	54	312	1	35	
11	0	0	0	0	31	28	0	312	1	35	
12	0	0	0	0	28	24	0	312	1	35	
13	0	0	0	0	31	28	0	312	1	35	
14	0	0	0	0	25	24	203	312	1	35	
15	0	0	0	0	28	24	851	312	1	35	
0	0	0	0	0	31	28	1020	312	1	35	
1	0	0	0	0	31	28	1020	312	1	35	
2	0	0	0	0	28	24	1020	312	1	35	
3	0	0	0	0	28	24	1020	312	1	35	
4	0	0	0	0	28	24	1020	312	1	35	
5	0	0	0	0	28	24	1020	312	1	35	
6	0	0	0	0	28	24	1020	312	1	35	
7	0	0	0	0	28	24	1020	312	1	35	
8	0	0	0	0	31	28	1020	312	1	35	
9	0	0	0	0	28	24	1020	312	1	35	
10	0	0	0	0	31	28	1020	312	1	35	
11	0	0	0	0	24	24	1020	312	1	35	
12	0	0	0	0	28	24	1020	312	1	35	
13	0	0	0	0	28	24	783	312	1	35	
14	0	0	0	0	28	24	96	312	1	35	
15	0	0	0	0	24	24	0	312	1	35	
0	0	0	0	0	35	31	0	312	1	35	
1	0	0	0	0	28	24	0	312	1	35	
2	0	0	0	0	31	28	86	312	1	35	
3	0	0	0	0	28	28	670	312	1	35	
4	0	0	0	0	28	24	1020	312	1	35	
5	0	0	0	0	28	24	1020	312	1	35	
6	0	0	0	0	31	28	1020	312	1	35	
7	0	0	0	0	31	28	1020	312	1	35	
8	0	0	0	0	31	28	1020	312	1	35	
9	0	0	0	0	28	24	1020	312	1	35	
10	0	0	0	0	35	31	1017	312	1	35	
11	0	0	0	0	28	24	1020	312	1	35	
12	0	0	0	0	31	28	1020	312	1	35	
13	0	0	0	0	28	24	1020	312	1	35	
14	0	0	0	0	24	24	1020	312	1	35	
15	0	0	0	0	28	24	1020	312	1	35	
0	0	0	0	0	28	24	1017	312	1	35	
1	0	0	0	0	28	24	428	312	1	35	
2	0	0	0	0	28	24	0	312	1	35	
3	0	0	0	0	28	24	0	312	1	35	
4	0	0	0	0	28	24	0	312	1	35	
5	0	0	0	0	28	24	0	312	1	35	
6	0	0	0	0	31	28	0	312	1	35	
7	0	0	0	0	31	28	88	310	1	35	
8	0	0	0	0	28	24	700	312	1	35	
9	0	0	0	0	27	24	1020	312	1	35	
10	0	0	0	0	28	24	1020	312	1	35	
11	0	0	0	0	28	24	1020	312	1	35	
12	0	0	0	0	28	24	1020	312	1	35	
13	0	0	0	0	28	24	1020	312	1	35	
14	0	0	0	0	28	24	1020	312	1	35	
15	0	0	0	0	31	28	1020	312	1	35	
0	0	0	0	0	31	28	1020	312	1	35	
1	0	0	0	0	28	24	1020	312	1	35	
2	0	0	0	0	28	24	1020	312	1	35	
3	0	0	0	0	31	35	1020	312	1	35	
4	0	0	0	0	28	24	775	312	1	35	
5	0	0	0	0	28	24	76	312	1	35	
6	0	0	0	0	28	24	0	312	1	35	
7	0	0	0	0	28	24	0	312	1	35	
8	0	0	0	0	28	24	0	312	1	35	
9	0	0	0	0	31	28	0	312	1	35	
10	0	0	0	0	31	28	0	312	1	35	
11	0	0	0	0	28	24	48	312	1	35	
12	0	0	0	0	28	24	636	312	1	35	
13	0	0	0	0	31	28	1020	312	1	35	
14	0	0	0	0	25	24	1020	312	1	35	
15	0	0	0	0	28	24	1020	312	1	35	
0	0	0	0	0	31	28	1020	312	1	35	
1	0	0	0	0	28	24	1020	312	1	35	
2	0	0	0	0	28	24	1020	312	1	35	
3	0	0	0	0	28	24	1020	312	1	35	
4	0	0	0	0	31	28	1020	312	1	35	
5	0	0	0	0	31	28	1020	312	1	35	
6	0	0	0	0	28	24	1020	312	1	35	
7	0	0	0	0	28	22	1022	312	1	35	
8	0	0	0	0	24	24	1020	312	1	35	
9	0	0	0	0	31	28	560	312	1	35	
10	0	0	0	0	28	24	0	312	1	35	
11	0	0	0	0	28	24	0	312	1	35	
12	0	0	0	0	31	28	0	312	1	35	
13	0	0	0	0	31	28	0	312	1	35	
14	0	0	0	0	28	24	63	312	1	35	
15	0	0	0	0	28	24	639	312	1	35	
0	0	0	0	0	28	24	1020	312	1	35	
1	0	0	0	0	28	24	1020	312	1	35	
2	0	0	0	0	28	24	1020	312	1	35	
3	0	0	0	0	28	24	1020	312	1	35	
4	0	0	0	0	31	28	1020	312	1	35	
5	0	0	0	0	28	24	1020	312	1	35	
6	0	0	0	0	35	31	1020	312	1	35	
7	0	0	0	0	28	24	1020	312	1	35	
8	0	0	0	0	31	28	1020	312	1	35	
9	0	0	0	0	28	24	1020	312	1	35	
10	0	0	0	0	35	31	1020	312	1	35	
11	0	0	0	0	28	24	1020	312	1	35	
12	0	0	0	0	28	24	1020	312	1	35	
13	0	0	0	0	28	24	871	312	1	35	
14	0	0	0	0	30	28	227	312	1	35	
15	0	0	0	0	28	24	0	312	1	35	
0	0	0	0	0	31	28	0	312	1	35	
1	0	0	0	0	31	28	0	312	1	35	
2	0	0	0	0	28	24	199	312	1	35	
3	0	0	0	0	28	24	846	312	1	35	
4	0	0	0	0	28	24	1020	312	1	35	
5	0	0	0	0	35	31	1020	312	1	35	
6	0	0	0	0	28	24	1020	312	1	35	
7	0	0	0	0	31	28	1020	312	1	35	
8	0	0	0	0	28	24	1020	312	1	35	
9	0	0	0	0	28	24	1020	312	1	35	
10	0	0	0	0	24	24	1020	312	1	35	
11	0	0	0	0	28	24	1020	312	1	35	
12	0	0	0	0	31	28	1020	312	1	35	
13	0	0	0	0	28	24	1020	312	1	35	
14	0	0	0	0	35	31	1020	312	1	35	
15	0	0	0	0	28	24	1020	312	1	35	
0	0	0	0	0	24	24	1020	312	1	35	
1	0	0	0	0	28	24	830	312	1	35	
2	0	0	0	0	28	24	159	312	1	35	
3	0	0	0	0	24	24	0	312	1	35	
4	0	0	0	0	28	24	0	312	1	35	
5	0	0	0	0	28	24	0	312	1	35	
6	0	0	0	0	28	24	120	312	1	35	
7	0	0	0	0	28	24	711	312	1	35	
8	0	0	0	0	35	31	1017	312	1	35	
9	0	0	0	0	35	31	1020	312	1	35	
10	0	0	0	0	28	24	1020	312	1	35	
11	0	0	0	0	28	24	1020	312	1	35	
12	0	0	0	0	31	28	1020	312	1	35	
13	0	0	0	0	31	28	1020	312	1	35	
14	0	0	0	0	25	24	1020	312	1	35	
15	0	0	0	0	31	28	1020	312	1	35	
0	0	0	0	0	28	24	1020	312	1	35	
1	0	0	0	0	28	24	1020	312	1	35	
2	0	0	0	0	28	24	1020	312	1	35	
3	0	0	0	0	28	24	1020	312	1	35	
4	0	0	0	0	28	24	1020	312	1	35	
5	0	0	0	0	31	28	775	312	1	35	
6	0	0	0	0	31	28	83	312	1	35	
7	0	0	0	0	28	24	0	312	1	35	
8	0	0	0	0	28	24	0	312	1	35	
9	0	0	0	0	31	28	0	312	1	35	
10	0	0	0	0	28	24	103	312	1	35	
11	0	0	0	0	35	31	705	312	1	35	
12	0	0	0	0	28	24	1020	312	1	35	
13	0	0	0	0	28	24	1020	312	1	35	
14	0	0	0	0	28	24	1020	312	1	35	
15	0	0	0	0	31	28	1020	312	1	35	
0	0	0	0	0	31	28	1020	312	1	35	
1	0	0	0	0	28	24	1020	312	1	35	
2	0	0	0	0	31	28	1020	312	1	35	
3	0	0	0	0	28	24	1020	312	1	35	
4	0	0	0	0	31	28	1020	312	1	35	
5	0	0	0	0	24	24	1020	312	1	35	
6	0	0	0	0	31	28	1020	312	1	35	
7	0	0	0	0	28	24	1020	312	1	35	
8	0	0	0	0	31	28	1020	312	1	35	
9	0	0	0	0	31	28	799	312	1	35	
10	0	0	0	0	28	24	137	312	1	35	
11	0	0	0	0	35	31	1	312	1	35	
12	0	0	0	0	28	24	0	312	1	35	
13	0	0	0	0	24	24	0	312	1	35	
14	0	0	0	0	24	24	319	312	1	35	
15	0	0	0	0	24	24	1016	312	1	35	
0	0	0	0	0	28	24	1020	312	1	35	
1	0	0	0	0	31	28	1020	312	1	35	
2	0	0	0	0	28	24	1020	312	1	35	
3	0	0	0	0	28	24	1020	312	1	35	
4	0	0	0	0	28	24	1020	312	1	35	
5	0	0	0	0	28	24	1020	312	1	35	
6	0	0	0	0	24	24	1020	312	1	35	
7	0	0	0	0	28	24	1020	312	1	35	
8	0	0	0	0	31	28	1020	312	1	35	
9	0	0	0	0	28	24	1020	312	1	35	
10	0	0	0	0	24	24	1020	312	1	35	
11	0	0	0	0	31	24	1022	312	1	35	
12	0	0	0	0	28	24	1020	312	1	35	
13	0	0	0	0	28	24	935	312	1	35	
14	0	0	0	0	28	24	329	312	1	35	
15	0	0	0	0	28	24	1	312	1	35	
0	0	0	0	0	28	24	0	312	1	35	
1	0	0	0	0	31	28	0	312	1	35	
2	0	0	0	0	31	28	294	312	1	35	
3	0	0	0	0	28	28	972	312	1	35	
4	0	0	0	0	28	24	1020	312	1	35	
5	0	0	0	0	28	24	1020	312	1	35	
6	0	0	0	0	28	24	1020	312	1	35	
7	0	0	0	0	28	24	1020	312	1	35	
8	0	0	0	0	28	24	1020	312	1	35	
9	0	0	0	0	28	24	1020	312	1	35	
10	0	0	0	0	28	24	1020	312	1	35	
11	0	0	0	0	31	28	1020	312	1	35	
12	0	0	0	0	31	28	1020	312	1	35	
13	0	0	0	0	31	28	1020	312	1	35	
14	0	0	0	0	25	24	1020	312	1	35	
15	0	0	0	0	28	24	1020	312	1	35	
0	0	0	0	0	28	24	1020	312	1	35	
1	0	0	0	0	31	28	926	312	1	35	
2	0	0	0	0	31	28	323	312	1	35	
3	0	0	0	0	28	24	1	312	1	35	
4	0	0	0	0	28	24	0	312	1	35	
5	0	0	0	0	28	24	0	312	1	35	
6	0	0	0	0	31	28	195	312	1	35	
7	0	0	0	0	28	24	831	312	1	35	
8	0	0	0	0	28	24	1020	312	1	35	
9	0	0	0	0	28	24	1020	312	1	35	
10	0	0	0	0	28	24	1020	312	1	35	
11	0	0	0	0	35	31	1020	312	1	35	
12	0	0	0	0	28	24	1020	312	1	35	
13	0	0	0	0	31	28	1020	312	1	35	
14	0	0	0	0	31	28	1020	312	1	35	
15	0	0	0	0	31	28	1020	312	1	35	
0	0	0	0	0	28	24	1020	312	1	35	
1	0	0	0	0	28	24	1020	312	1	35	
2	0	0	0	0	28	24	1020	312	1	35	
3	0	0	0	0	28	24	1020	312	1	35	
4	0	0	0	0	28	24	1020	312	1	35	
5	0	0	0	0	28	24	871	312	1	35	
6	0	0	0	0	28	24	220	312	1	35	
7	0	0	0	0	28	24	0	312	1	35	
8	0	0	0	0	31	28	0	312	1	35	
9	0	0	0	0	28	24	0	312	1	35	
10	0	0	0	0	31	28	192	312	1	35	
11	0	0	0	0	31	28	830	312	1	35	
12	0	0	0	0	28	24	1020	312	1	35	
13	0	0	0	0	28	24	1020	312	1	35	
14	0	0	0	0	25	24	1020	312	1	35	
15	0	0	0	0	24	24	1020	312	1	35	
0	0	0	0	0	28	24	1020	312	1	35	
1	0	0	0	0	28	24	1020	312	1	35	
2	0	0	0	0	31	28	1020	312	1	35	
3	0	0	0	0	28	24	1020	312	1	35	
4	0	0	0	0	28	24	1020	312	1	35	
5	0	0	0	0	28	24	1020	312	1	35	
6	0	0	0	0	28	24	1020	312	1	35	
7	0	0	0	0	28	24	1020	312	1	35	
8	0	0	0	0	28	24	1020	312	1	35	
9	0	0	0	0	24	24	897	312	1	35	
10	0	0	0	0	28	24	267	312	1	35	
11	0	0	0	0	35	31	0	312	1	35	
12	0	0	0	0	35	31	0	312	1	35	
13	0	0	0	0	28	24	0	312	1	35	
14	0	0	0	0	28	24	182	312	1	35	
15	0	0	0	0	28	24	812	312	1	35	
0	0	0	0	0	31	28	1020	312	1	35	
1	0	0	0	0	28	24	1020	312	1	35	
2	0	0	0	0	28	24	1020	312	1	35	
3	0	0	0	0	24	24	1020	312	1	35	
4	0	0	0	0	31	28	1020	312	1	35	
5	0	0	0	0	28	24	1020	312	1	35	
6	0	0	0	0	31	28	1020	312	1	35	
7	0	0	0	0	28	24	1020	312	1	35	
8	0	0	0	0	28	24	1020	312	1	35	
9	0	0	0	0	28	24	1020	312	1	35	
10	0	0	0	0	28	24	1020	312	1	35	
11	0	0	0	0	28	24	1020	312	1	35	
12	0	0	0	0	35	31	1020	312	1	35	
13	0	0	0	0	28	24	831	312	1	35	
14	0	0	0	0	25	24	166	312	1	35	
15	0	0	0	0	28	24	0	312	1	35	
0	0	0	0	0	24	24	0	312	1	35	
1	0	0	0	0	28	24	0	312	1	35	
2	0	0	0	0	24	24	87	312	1	35	
3	0	0	0	0	28	24	668	312	1	35	
4	0	0	0	0	28	24	1020	312	1	35	
5	0	0	0	0	28	24	1020	312	1	35	
6	0	0	0	0	31	28	1020	312	1	35	
7	0	0	0	0	28	24	1020	312	1	35	
8	0	0	0	0	28	24	1020	312	1	35	
9	0	0	0	0	28	24	1020	312	1	35	
10	0	0	0	0	31	28	1020	312	1	35	
11	0	0	0	0	31	28	1020	312	1	35	
12	0	0	0	0	28	24	1020	312	1	35	
13	0	0	0	0	31	28	1020	312	1	35	
14	0	0	0	0	31	28	1020	312	1	35	
15	0	0	0	0	28	22	1022	312	1	35	
0	0	0	0	0	28	24	1020	312	1	35	
1	0	0	0	0	28	24	865	312	1	35	
2	0	0	0	0	28	24	216	312	1	35	
3	0	0	0	0	33	35	0	312	1	35	
4	0	0	0	0	28	24	0	312	1	35	
5	0	0	0	0	28	24	0	312	1	35	
6	0	0	0	0	35	31	121	312	1	35	
7	0	0	0	0	31	28	713	312	1	35	
8	0	0	0	0	28	24	1020	312	1	35	
9	0	0	0	0	28	24	1020	312	1	35	
10	0	0	0	0	28	24	1020	312	1	35	
11	0	0	0	0	28	24	1020	312	1	35	
12	0	0	0	0	28	24	1020	312	1	35	
13	0	0	0	0	31	28	1020	312	1	35	
14	0	0	0	0	31	28	1020	312	1	35	
15	0	0	0	0	28	24	1020	312	1	35	
0	0	0	0	0	28	24	1020	312	1	35	
1	0	0	0	0	31	28	1020	312	1	35	
2	0	0	0	0	28	24	1020	312	1	35	
3	0	0	0	0	31	28	1020	312	1	35	
4	0	0	0	0	28	24	1020	312	1	35	
5	0	0	0	0	28	24	783	312	1	35	
6	0	0	0	0	31	28	92	312	1	35	
7	0	0	0	0	31	28	0	312	1	35	
8	0	0	0	0	28	24	0	312	1	35	
9	0	0	0	0	28	24	0	312	1	35	
10	0	0	0	0	35	31	0	312	1	35	
11	0	0	0	0	24	24	512	312	1	35	
12	0	0	0	0	28	24	1020	312	1	35	
13	0	0	0	0	28	24	1020	312	1	35	
14	0	0	0	0	28	24	1020	312	1	35	
15	0	0	0	0	28	24	1020	312	1	35	
0	0	0	0	0	28	24	1020	312	1	35	
1	0	0	0	0	24	24	1020	312	1	35	
2	0	0	0	0	28	24	1020	312	1	35	
3	0	0	0	0	19	25	1020	312	1	35	
4	0	0	0	0	28	24	1020	312	1	35	
5	0	0	0	0	28	24	1020	312	1	35	
6	0	0	0	0	31	28	1020	312	1	35	
7	0	0	0	0	28	24	1020	312	1	35	
8	0	0	0	0	31	28	1020	312	1	35	
9	0	0	0	0	28	24	755	312	1	35	
10	0	0	0	0	35	31	49	312	1	35	
11	0	0	0	0	28	24	0	312	1	35	
12	0	0	0	0	28	24	0	312	1	35	
13	0	0	0	0	31	28	0	312	1	35	
14	0	0	0	0	24	24	28	312	1	35	
15	0	0	0	0	31	28	575	312	1	35	
0	0	0	0	0	28	24	1020	312	1	35	
1	0	0	0	0	35	31	1020	312	1	35	
2	0	0	0	0	28	24	1020	312	1	35	
3	0	0	0	0	28	24	1020	312	1	35	
4	0	0	0	0	24	24	1020	312	1	35	
5	0	0	0	0	35	31	1020	312	1	35	
6	0	0	0	0	28	24	1020	312	1	35	
7	0	0	0	0	31	28	1020	312	1	35	
8	0	0	0	0	28	24	1020	312	1	35	
9	0	0	0	0	31	28	1020	312	1	35	
10	0	0	0	0	28	24	1020	312	1	35	
11	0	0	0	0	24	24	1020	312	1	35	
12	0	0	0	0	31	28	1020	312	1	35	
13	0	0	0	0	31	28	921	312	1	35	
14	0	0	0	0	31	28	305	312	1	35	
15	0	0	0	0	28	24	1	312	1	35	
0	0	0	0	0	28	24	0	312	1	35	
1	0	0	0	0	31	28	0	312	1	35	
2	0	0	0	0	28	24	241	312	1	35	
3	0	0	0	0	24	28	900	312	1	35	
4	0	0	0	0	35	31	1017	312	1	35	
5	0	0	0	0	28	24	1020	312	1	35	
6	0	0	0	0	31	28	1020	312	1	35	
7	0	0	0	0	31	28	1020	312	1	35	
8	0	0	0	0	28	24	1020	312	1	35	
9	0	0	0	0	28	24	1020	312	1	35	
10	0	0	0	0	28	24	1020	312	1	35	
11	0	0	0	0	31	28	1020	312	1	35	
12	0	0	0	0	28	24	1020	312	1	35	
13	0	0	0	0	28	24	1020	312	1	35	
14	0	0	0	0	25	24	1020	312	1	35	
15	0	0	0	0	28	24	1020	312	1	35	
0	0	0	0	0	28	24	1020	312	1	35	
1	0	0	0	0	35	31	910	312	1	35	
2	0	0	0	0	31	28	304	312	1	35	
3	0	0	0	0	31	28	1	312	1	35	
4	0	0	0	0	31	28	0	312	1	35	
5	0	0	0	0	28	24	0	312	1	35	
6	0	0	0	0	31	28	220	312	1	35	
7	0	0	0	0	28	24	871	312	1	35	
8	0	0	0	0	28	24	1020	312	1	35	
9	0	0	0	0	28	24	1020	312	1	35	
10	0	0	0	0	28	24	1020	312	1	35	
11	0	0	0	0	28	24	1020	312	1	35	
12	0	0	0	0	28	24	1020	312	1	35	
13	0	0	0	0	28	24	1020	312	1	35	
14	0	0	0	0	24	24	1020	312	1	35	
15	0	0	0	0	28	24	1020	312	1	35	
0	0	0	0	0	31	28	1020	312	1	35	
1	0	0	0	0	28	24	1020	312	1	35	
2	0	0	0	0	28	24	1020	312	1	35	
3	0	0	0	0	28	22	1022	312	1	35	
4	0	0	0	0	28	24	1020	312	1	35	
5	0	0	0	0	28	24	831	312	1	35	
6	0	0	0	0	28	24	152	312	1	35	
7	0	0	0	0	31	28	0	312	1	35	
8	0	0	0	0	28	24	0	312	1	35	
9	0	0	0	0	24	24	0	312	1	35	
10	0	0	0	0	28	24	0	312	1	35	
11	0	0	0	0	28	24	521	312	1	35	
12	0	0	0	0	28	24	1020	312	1	35	
13	0	0	0	0	35	31	1020	312	1	35	
14	0	0	0	0	24	24	1020	312	1	35	
15	0	0	0	0	31	28	1020	312	1	35	
0	0	0	0	0	28	24	1020	312	1	35	
1	0	0	0	0	31	28	1020	312	1	35	
2	0	0	0	0	28	24	1020	312	1	35	
3	0	0	0	0	28	24	1020	312	1	35	
4	0	0	0	0	31	28	1020	312	1	35	
5	0	0	0	0	28	24	1020	312	1	35	
6	0	0	0	0	35	31	1020	312	1	35	
7	0	0	0	0	31	28	1020	312	1	35	
8	0	0	0	0	28	24	1020	312	1	35	
9	0	0	0	0	28	24	831	312	1	35	
10	0	0	0	0	28	24	159	312	1	35	
11	0	0	0	0	28	24	0	312	1	35	
12	0	0	0	0	28	24	0	312	1	35	
13	0	0	0	0	28	24	0	312	1	35	
14	0	0	0	0	28	24	81	312	1	35	
15	0	0	0	0	31	28	664	312	1	35	
0	0	0	0	0	31	28	1020	312	1	35	
1	0	0	0	0	31	28	1020	312	1	35	
2	0	0	0	0	28	24	1020	312	1	35	
3	0	0	0	0	24	24	1020	312	1	35	
4	0	0	0	0	28	24	1020	312	1	35	
5	0	0	0	0	28	24	1020	312	1	35	
6	0	0	0	0	28	24	1020	312	1	35	
7	0	0	0	0	28	24	1020	312	1	35	
8	0	0	0	0	28	24	1020	312	1	35	
9	0	0	0	0	28	24	1020	312	1	35	
10	0	0	0	0	31	28	1020	312	1	35	
11	0	0	0	0	31	28	1020	312	1	35	
12	0	0	0	0	28	24	1020	312	1	35	
13	0	0	0	0	28	24	867	312	1	35	
14	0	0	0	0	25	24	216	312	1	35	
15	0	0	0	0	28	24	0	312	1	35	
0	0	0	0	0	28	24	0	312	1	35	
1	0	0	0	0	35	31	0	312	1	35	
2	0	0	0	0	28	24	89	312	1	35	
3	0	0	0	0	31	28	671	312	1	35	
4	0	0	0	0	31	28	1020	312	1	35	
5	0	0	0	0	28	24	1020	312	1	35	
6	0	0	0	0	28	24	1020	312	1	35	
7	0	0	0	0	31	28	1020	312	1	35	
8	0	0	0	0	28	24	1020	312	1	35	
9	0	0	0	0	28	24	1020	312	1	35	
10	0	0	0	0	28	24	1020	312	1	35	
11	0	0	0	0	35	31	1017	312	1	35	
12	0	0	0	0	28	24	1020	312	1	35	
13	0	0	0	0	28	24	1020	312	1	35	
14	0	0	0	0	28	24	1020	312	1	35	
15	0	0	0	0	28	24	1020	312	1	35	
0	0	0	0	0	31	28	1020	312	1	35	
1	0	0	0	0	28	24	880	312	1	35	
2	0	0	0	0	31	28	227	312	1	35	
3	0	0	0	0	28	24	0	312	1	35	
4	0	0	0	0	28	24	0	312	1	35	
5	0	0	0	0	24	24	0	312	1	35	
6	0	0	0	0	31	28	0	312	1	35	
7	0	0	0	0	31	28	487	312	1	35	
8	0	0	0	0	28	24	1020	312	1	35	
9	0	0	0	0	31	28	1020	312	1	35	
10	0	0	0	0	28	24	1020	312	1	35	
11	0	0	0	0	31	28	1020	312	1	35	
12	0	0	0	0	28	24	1020	312	1	35	
13	0	0	0	0	28	24	1020	312	1	35	
14	0	0	0	0	35	31	1020	312	1	35	
15	0	0	0	0	28	24	1020	312	1	35	
0	0	0	0	0	28	24	1020	312	1	35	
1	0	0	0	0	28	24	1020	312	1	35	
2	0	0	0	0	28	24	1020	312	1	35	
3	0	0	0	0	31	28	1020	312	1	35	
4	0	0	0	0	31	28	1020	312	1	35	
5	0	0	0	0	28	24	831	312	1	35	
6	0	0	0	0	28	24	163	312	1	35	
7	0	0	0	0	24	24	0	312	1	35	
8	0	0	0	0	28	24	0	312	1	35	
9	0	0	0	0	28	24	0	312	1	35	
10	0	0	0	0	28	24	0	312	1	35	
11	0	0	0	0	35	31	480	312	1	35	
12	0	0	0	0	24	24	1020	312	1	35	
13	0	0	0	0	31	28	1020	312	1	35	
14	0	0	0	0	28	24	1020	312	1	35	
15	0	0	0	0	24	24	1020	312	1	35	
0	0	0	0	0	28	24	1020	312	1	35	
1	0	0	0	0	31	28	1020	312	1	35	
2	0	0	0	0	28	24	1020	312	1	35	
3	0	0	0	0	24	24	1020	312	1	35	
4	0	0	0	0	24	24	1020	312	1	35	
5	0	0	0	0	28	24	1020	312	1	35	
6	0	0	0	0	35	31	1020	312	1	35	
7	0	0	0	0	28	22	1022	312	1	35	
8	0	0	0	0	31	28	1020	312	1	35	
9	0	0	0	0	28	24	824	312	1	35	
10	0	0	0	0	28	24	143	312	1	35	
11	0	0	0	0	28	24	0	312	1	35	
12	0	0	0	0	35	31	0	312	1	35	
13	0	0	0	0	28	24	0	312	1	35	
14	0	0	0	0	25	24	0	312	1	35	
15	0	0	0	0	35	31	511	312	1	35	
0	0	0	0	0	31	28	1020	312	1	35	
1	0	0	0	0	28	24	1020	312	1	35	
2	0	0	0	0	31	28	1020	312	1	35	
3	0	0	0	0	28	24	1020	312	1	35	
4	0	0	0	0	28	24	1020	312	1	35	
5	0	0	0	0	28	24	1020	312	1	35	
6	0	0	0	0	28	24	1020	312	1	35	
7	0	0	0	0	35	31	1017	312	1	35	
8	0	0	0	0	28	24	1020	312	1	35	
9	0	0	0	0	28	24	1020	312	1	35	
10	0	0	0	0	28	24	1020	312	1	35	
11	0	0	0	0	28	24	1020	312	1	35	
12	0	0	0	0	28	24	1020	312	1	35	
13	0	0	0	0	31	28	896	312	1	35	
14	0	0	0	0	28	24	255	312	1	35	
15	0	0	0	0	28	24	0	312	1	35	
0	0	0	0	0	31	28	0	312	1	35	
1	0	0	0	0	28	24	0	312	1	35	
2	0	0	0	0	35	31	127	312	1	35	
3	0	0	0	0	28	24	732	312	1	35	
4	0	0	0	0	31	28	1020	312	1	35	
5	0	0	0	0	28	24	1020	312	1	35	
6	0	0	0	0	28	24	1020	312	1	35	
7	0	0	0	0	28	24	1020	312	1	35	
8	0	0	0	0	28	24	1020	312	1	35	
9	0	0	0	0	31	28	1020	312	1	35	
10	0	0	0	0	28	24	1020	312	1	35	
11	0	0	0	0	31	28	1020	312	1	35	
12	0	0	0	0	28	24	1020	312	1	35	
13	0	0	0	0	28	24	1020	312	1	35	
14	0	0	0	0	35	31	1020	312	1	35	
15	0	0	0	0	31	28	1020	312	1	35	
0	0	0	0	0	28	24	1020	312	1	35	
1	0	0	0	0	35	31	908	312	1	35	
2	0	0	0	0	28	24	287	312	1	35	
3	0	0	0	0	31	28	0	312	1	35	
4	0	0	0	0	28	24	0	312	1	35	
5	0	0	0	0	28	24	0	312	1	35	
6	0	0	0	0	28	24	0	312	1	35	
7	0	0	0	0	35	31	472	312	1	35	
8	0	0	0	0	28	24	1020	312	1	35	
9	0	0	0	0	28	24	1020	312	1	35	
10	0	0	0	0	28	24	1020	312	1	35	
11	0	0	0	0	31	28	1020	312	1	35	
12	0	0	0	0	28	24	1020	312	1	35	
13	0	0	0	0	31	28	1020	312	1	35	
14	0	0	0	0	28	24	1020	312	1	35	
15	0	0	0	0	31	28	1020	312	1	35	
0	0	0	0	0	28	24	1020	312	1	35	
1	0	0	0	0	28	24	1020	312	1	35	
2	0	0	0	0	28	24	1020	312	1	35	
3	0	0	0	0	31	31	1020	312	1	35	
4	0	0	0	0	28	24	1020	312	1	35	
5	0	0	0	0	28	24	783	312	1	35	
6	0	0	0	0	24	24	79	312	1	35	
7	0	0	0	0	28	24	0	312	1	35	
8	0	0	0	0	31	28	0	312	1	35	
9	0	0	0	0	31	28	0	312	1	35	
10	0	0	0	0	28	24	48	312	1	35	
11	0	0	0	0	28	24	609	312	1	35	
12	0	0	0	0	31	28	1020	312	1	35	
13	0	0	0	0	28	24	1020	312	1	35	
14	0	0	0	0	25	24	1020	312	1	35	
15	0	0	0	0	24	24	1020	312	1	35	
0	0	0	0	0	28	24	1020	312	1	35	
1	0	0	0	0	24	24	1020	312	1	35	
2	0	0	0	0	28	24	1020	312	1	35	
3	0	0	0	0	28	24	1020	312	1	35	
4	0	0	0	0	31	28	1020	312	1	35	
5	0	0	0	0	31	28	1020	312	1	35	
6	0	0	0	0	31	28	1020	312	1	35	
7	0	0	0	0	28	24	1020	312	1	35	
8	0	0	0	0	28	24	1020	312	1	35	
9	0	0	0	0	28	24	812	312	1	35	
10	0	0	0	0	28	24	131	312	1	35	
11	0	0	0	0	31	28	0	312	1	35	
12	0	0	0	0	31	28	0	312	1	35	
13	0	0	0	0	28	24	0	312	1	35	
14	0	0	0	0	31	28	60	312	1	35	
15	0	0	0	0	28	24	627	312	1	35	
0	0	0	0	0	31	28	1020	312	1	35	
1	0	0	0	0	28	24	1020	312	1	35	
2	0	0	0	0	28	24	1020	312	1	35	
3	0	0	0	0	19	28	1020	312	1	35	
4	0	0	0	0	28	24	1020	312	1	35	
5	0	0	0	0	24	24	1020	312	1	35	
6	0	0	0	0	31	28	1020	312	1	35	
7	0	0	0	0	28	24	1020	312	1	35	
8	0	0	0	0	31	28	1020	312	1	35	
9	0	0	0	0	28	24	1020	312	1	35	
10	0	0	0	0	28	24	1020	312	1	35	
11	0	0	0	0	28	22	1022	312	1	35	
12	0	0	0	0	28	24	1020	312	1	35	
13	0	0	0	0	28	24	927	312	1	35	
14	0	0	0	0	35	31	307	312	1	35	
15	0	0	0	0	28	24	0	312	1	35	
0	0	0	0	0	35	31	0	312	1	35	
1	0	0	0	0	31	28	0	312	1	35	
2	0	0	0	0	28	24	96	312	1	35	
3	0	0	0	0	28	24	679	312	1	35	
4	0	0	0	0	24	24	1020	312	1	35	
5	0	0	0	0	28	24	1020	312	1	35	
6	0	0	0	0	35	31	1020	312	1	35	
7	0	0	0	0	28	24	1020	312	1	35	
8	0	0	0	0	28	24	1020	312	1	35	
9	0	0	0	0	35	31	1020	312	1	35	
10	0	0	0	0	28	24	1020	312	1	35	
11	0	0	0	0	28	24	1020	312	1	35	
12	0	0	0	0	31	28	1020	312	1	35	
13	0	0	0	0	28	24	1020	312	1	35	
14	0	0	0	0	28	24	1020	312	1	35	
15	0	0	0	0	28	24	1020	312	1	35	
0	0	0	0	0	31	28	1020	312	1	35	
1	0	0	0	0	31	28	896	312	1	35	
2	0	0	0	0	28	24	255	312	1	35	
3	0	0	0	0	28	28	0	312	1	35	
4	0	0	0	0	28	24	0	312	1	35	
5	0	0	0	0	31	28	0	312	1	35	
6	0	0	0	0	28	24	108	312	1	35	
7	0	0	0	0	28	24	689	312	1	35	
8	0	0	0	0	35	31	1017	312	1	35	
9	0	0	0	0	28	24	1020	312	1	35	
10	0	0	0	0	28	24	1020	312	1	35	
11	0	0	0	0	28	24	1020	312	1	35	
12	0	0	0	0	28	24	1020	312	1	35	
13	0	0	0	0	28	24	1020	312	1	35	
14	0	0	0	0	30	28	1020	312	1	35	
15	0	0	0	0	28	24	1020	312	1	35	
0	0	0	0	0	28	24	1020	312	1	35	
1	0	0	0	0	28	24	1020	312	1	35	
2	0	0	0	0	28	24	1020	312	1	35	
3	0	0	0	0	28	24	1020	312	1	35	
4	0	0	0	0	28	24	1020	312	1	35	
5	0	0	0	0	31	28	846	312	1	35	
6	0	0	0	0	28	24	179	312	1	35	
7	0	0	0	0	28	24	0	312	1	35	
8	0	0	0	0	28	24	0	312	1	35	
9	0	0	0	0	31	28	0	312	1	35	
10	0	0	0	0	28	24	0	312	1	35	
11	0	0	0	0	24	24	531	312	1	35	
12	0	0	0	0	28	24	1020	312	1	35	
13	0	0	0	0	28	24	1020	312	1	35	
14	0	0	0	0	31	28	1020	312	1	35	
15	0	0	0	0	31	28	1020	312	1	35	
0	0	0	0	0	28	24	1020	312	1	35	
1	0	0	0	0	28	24	1020	312	1	35	
2	0	0	0	0	28	24	1020	312	1	35	
3	0	0	0	0	24	28	1020	312	1	35	
4	0	0	0	0	28	24	1020	312	1	35	
5	0	0	0	0	31	28	1020	312	1	35	
6	0	0	0	0	24	24	1020	312	1	35	
7	0	0	0	0	28	24	1020	312	1	35	
8	0	0	0	0	28	24	1020	312	1	35	
9	0	0	0	0	31	28	903	312	1	35	
10	0	0	0	0	31	28	263	312	1	35	
11	0	0	0	0	28	24	0	312	1	35	
12	0	0	0	0	28	24	0	312	1	35	
13	0	0	0	0	28	24	0	312	1	35	
14	0	0	0	0	35	31	7	312	1	35	
15	0	0	0	0	28	24	536	312	1	35	
0	0	0	0	0	28	24	1020	312	1	35	
1	0	0	0	0	28	24	1020	312	1	35	
2	0	0	0	0	31	28	1020	312	1	35	
3	0	0	0	0	31	28	1020	312	1	35	
4	0	0	0	0	28	24	1020	312	1	35	
5	0	0	0	0	28	24	1020	312	1	35	
6	0	0	0	0	24	24	1020	312	1	35	
7	0	0	0	0	28	24	1020	312	1	35	
8	0	0	0	0	24	24	1020	312	1	35	
9	0	0	0	0	28	24	1020	312	1	35	
10	0	0	0	0	31	28	1020	312	1	35	
11	0	0	0	0	31	28	1020	312	1	35	
12	0	0	0	0	31	28	1020	312	1	35	
13	0	0	0	0	28	24	940	312	1	35	
14	0	0	0	0	31	28	327	312	1	35	
15	0	0	0	0	31	28	0	312	1	35	
0	0	0	0	0	28	24	0	312	1	35	
1	0	0	0	0	28	24	0	312	1	35	
2	0	0	0	0	28	24	131	312	1	35	
3	0	0	0	0	31	28	734	312	1	35	
4	0	0	0	0	35	31	1017	312	1	35	
5	0	0	0	0	31	28	1020	312	1	35	
6	0	0	0	0	24	24	1020	312	1	35	
7	0	0	0	0	28	24	1020	312	1	35	
8	0	0	0	0	28	24	1020	312	1	35	
9	0	0	0	0	31	28	1020	312	1	35	
10	0	0	0	0	28	24	1020	312	1	35	
11	0	0	0	0	31	28	1020	312	1	35	
12	0	0	0	0	28	24	1020	312	1	35	
13	0	0	0	0	28	24	1020	312	1	35	
14	0	0	0	0	24	24	1020	312	1	35	
15	0	0	0	0	31	24	1022	312	1	35	
0	0	0	0	0	25	24	1020	312	1	35	
1	0	0	0	0	28	24	944	312	1	35	
2	0	0	0	0	28	24	344	312	1	35	
3	0	0	0	0	31	28	0	312	1	35	
4	0	0	0	0	28	24	0	312	1	35	
5	0	0	0	0	28	24	0	312	1	35	
6	0	0	0	0	28	24	12	312	1	35	
7	0	0	0	0	28	24	537	312	1	35	
8	0	0	0	0	31	28	1020	312	1	35	
9	0	0	0	0	31	28	1020	312	1	35	
10	0	0	0	0	31	28	1020	312	1	35	
11	0	0	0	0	35	31	1020	312	1	35	
12	0	0	0	0	28	24	1020	312	1	35	
13	0	0	0	0	28	24	1020	312	1	35	
14	0	0	0	0	28	24	1020	312	1	35	
15	0	0	0	0	35	31	1017	312	1	35	
0	0	0	0	0	31	28	1020	312	1	35	
1	0	0	0	0	24	24	1020	312	1	35	
2	0	0	0	0	28	24	1020	312	1	35	
3	0	0	0	0	24	24	1020	312	1	35	
4	0	0	0	0	31	28	1020	312	1	35	
5	0	0	0	0	28	24	888	312	1	35	
6	0	0	0	0	31	28	227	312	1	35	
7	0	0	0	0	31	28	0	312	1	35	
8	0	0	0	0	28	24	0	312	1	35	
9	0	0	0	0	28	24	0	312	1	35	
10	0	0	0	0	28	24	0	312	1	35	
11	0	0	0	0	31	28	384	312	1	35	
12	0	0	0	0	31	28	1020	312	1	35	
13	0	0	0	0	28	24	1020	312	1	35	
14	0	0	0	0	30	28	1020	312	1	35	
15	0	0	0	0	28	24	1020	312	1	35	
0	0	0	0	0	28	24	1020	312	1	35	
1	0	0	0	0	31	28	1020	312	1	35	
2	0	0	0	0	28	24	1020	312	1	35	
3	0	0	0	0	28	24	1020	312	1	35	
4	0	0	0	0	35	31	1017	312	1	35	
5	0	0	0	0	35	31	1020	312	1	35	
6	0	0	0	0	28	24	1020	312	1	35	
7	0	0	0	0	28	24	1020	312	1	35	
8	0	0	0	0	28	24	1020	312	1	35	
9	0	0	0	0	31	28	696	312	1	35	
10	0	0	0	0	28	24	0	312	1	35	
11	0	0	0	0	24	24	0	312	1	35	
12	0	0	0	0	28	24	0	312	1	35	
13	0	0	0	0	28	24	0	312	1	35	
14	0	0	0	0	28	24	0	312	1	35	
15	0	0	0	0	28	24	350	312	1	35	
0	0	0	0	0	28	24	1020	312	1	35	
1	0	0	0	0	28	24	1020	312	1	35	
2	0	0	0	0	35	31	1020	312	1	35	
3	0	0	0	0	28	24	1020	312	1	35	
4	0	0	0	0	28	24	1020	312	1	35	
5	0	0	0	0	28	24	1020	312	1	35	
6	0	0	0	0	28	24	1020	312	1	35	
7	0	0	0	0	31	28	1020	312	1	35	
8	0	0	0	0	31	28	1020	312	1	35	
9	0	0	0	0	28	24	1020	312	1	35	
10	0	0	0	0	28	24	1020	312	1	35	
11	0	0	0	0	28	24	1020	312	1	35	
12	0	0	0	0	28	24	1020	312	1	35	
13	0	0	0	0	28	24	838	312	1	35	
14	0	0	0	0	35	31	167	312	1	35	
15	0	0	0	0	28	24	0	312	1	35	
0	0	0	0	0	28	24	0	312	1	35	
1	0	0	0	0	35	31	0	312	1	35	
2	0	0	0	0	28	24	15	312	1	35	
3	0	0	0	0	28	24	551	312	1	35	
4	0	0	0	0	28	24	1020	312	1	35	
5	0	0	0	0	28	24	1020	312	1	35	
6	0	0	0	0	24	24	1020	312	1	35	
7	0	0	0	0	28	24	1020	312	1	35	
8	0	0	0	0	35	31	1020	312	1	35	
9	0	0	0	0	28	24	1020	312	1	35	
10	0	0	0	0	28	24	1020	312	1	35	
11	0	0	0	0	28	24	1020	312	1	35	
12	0	0	0	0	31	28	1020	312	1	35	
13	0	0	0	0	28	24	1020	312	1	35	
14	0	0	0	0	28	24	1020	312	1	35	
15	0	0	0	0	28	24	1020	312	1	35	
0	0	0	0	0	28	24	1020	312	1	35	
1	0	0	0	0	35	31	947	312	1	35	
2	0	0	0	0	28	24	335	312	1	35	
3	0	0	0	0	28	28	0	312	1	35	
4	0	0	0	0	28	24	0	312	1	35	
5	0	0	0	0	31	28	0	312	1	35	
6	0	0	0	0	31	28	0	312	1	35	
7	0	0	0	0	28	24	499	312	1	35	
8	0	0	0	0	24	24	1020	312	1	35	
9	0	0	0	0	28	24	1020	312	1	35	
10	0	0	0	0	31	28	1020	312	1	35	
11	0	0	0	0	28	24	1020	312	1	35	
12	0	0	0	0	31	28	1020	312	1	35	
13	0	0	0	0	28	24	1020	312	1	35	
14	0	0	0	0	25	24	1020	312	1	35	
15	0	0	0	0	28	24	1020	312	1	35	
0	0	0	0	0	28	24	1020	312	1	35	
1	0	0	0	0	28	24	1020	312	1	35	
2	0	0	0	0	28	24	1020	312	1	35	
3	0	0	0	0	28	22	1022	312	1	35	
4	0	0	0	0	28	24	1020	312	1	35	
5	0	0	0	0	28	24	992	312	1	35	
6	0	0	0	0	31	28	406	312	1	35	
7	0	0	0	0	28	24	1	312	1	35	
8	0	0	0	0	28	24	0	312	1	35	
9	0	0	0	0	28	24	0	312	1	35	
10	0	0	0	0	31	28	48	312	1	35	
11	0	0	0	0	31	28	600	312	1	35	
12	0	0	0	0	28	24	1020	312	1	35	
13	0	0	0	0	31	28	1020	312	1	35	
14	0	0	0	0	28	24	1020	312	1	35	
15	0	0	0	0	31	28	1020	312	1	35	
0	0	0	0	0	28	24	1020	312	1	35	
1	0	0	0	0	28	24	1020	312	1	35	
2	0	0	0	0	28	24	1020	312	1	35	
3	0	0	0	0	19	28	1020	312	1	35	
4	0	0	0	0	28	24	1020	312	1	35	
5	0	0	0	0	24	24	1020	312	1	35	
6	0	0	0	0	31	28	1020	312	1	35	
7	0	0	0	0	31	28	1020	312	1	35	
8	0	0	0	0	28	24	1020	312	1	35	
9	0	0	0	0	31	28	942	312	1	35	
10	0	0	0	0	28	24	323	312	1	35	
11	0	0	0	0	31	28	0	312	1	35	
12	0	0	0	0	28	24	0	312	1	35	
13	0	0	0	0	28	24	0	312	1	35	
14	0	0	0	0	31	28	0	312	1	35	
15	0	0	0	0	35	31	521	312	1	35	
0	0	0	0	0	28	24	1020	312	1	35	
1	0	0	0	0	24	24	1020	312	1	35	
2	0	0	0	0	28	24	1020	312	1	35	
3	0	0	0	0	31	28	1020	312	1	35	
4	0	0	0	0	28	24	1020	312	1	35	
5	0	0	0	0	31	28	1020	312	1	35	
6	0	0	0	0	28	24	1020	312	1	35	
7	0	0	0	0	28	24	1020	312	1	35	
8	0	0	0	0	28	24	1020	312	1	35	
9	0	0	0	0	31	28	1020	312	1	35	
10	0	0	0	0	31	28	1020	312	1	35	
11	0	0	0	0	28	24	1020	312	1	35	
12	0	0	0	0	28	24	1020	312	1	35	
13	0	0	0	0	28	24	908	312	1	35	
14	0	0	0	0	28	24	271	312	1	35	
15	0	0	0	0	28	24	0	312	1	35	
0	0	0	0	0	28	24	0	312	1	35	
1	0	0	0	0	31	28	0	312	1	35	
2	0	0	0	0	28	24	0	312	1	35	
3	0	0	0	0	28	28	361	312	1	35	
4	0	0	0	0	28	24	1020	312	1	35	
5	0	0	0	0	28	24	1020	312	1	35	
6	0	0	0	0	31	28	1020	312	1	35	
7	0	0	0	0	31	28	1020	312	1	35	
8	0	0	0	0	31	28	1020	312	1	35	
9	0	0	0	0	28	24	1020	312	1	35	
10	0	0	0	0	35	31	1020	312	1	35	
11	0	0	0	0	28	24	1020	312	1	35	
12	0	0	0	0	28	24	1020	312	1	35	
13	0	0	0	0	28	24	1020	312	1	35	
14	0	0	0	0	25	24	1020	312	1	35	
15	0	0	0	0	28	24	1020	312	1	35	
0	0	0	0	0	28	24	1020	312	1	35	
1	0	0	0	0	28	24	819	312	1	35	
2	0	0	0	0	28	24	156	312	1	35	
3	0	0	0	0	28	24	0	312	1	35	
4	0	0	0	0	28	24	0	312	1	35	
5	0	0	0	0	28	24	0	312	1	35	
6	0	0	0	0	28	24	0	312	1	35	
7	0	0	0	0	28	24	332	312	1	35	
8	0	0	0	0	28	24	1020	312	1	35	
9	0	0	0	0	28	24	1020	312	1	35	
10	0	0	0	0	28	24	1020	312	1	35	
11	0	0	0	0	35	31	1020	312	1	35	
12	0	0	0	0	28	24	1020	312	1	35	
13	0	0	0	0	28	24	1020	312	1	35	
14	0	0	0	0	28	24	1020	312	1	35	
15	0	0	0	0	31	28	1020	312	1	35	
0	0	0	0	0	24	24	1020	312	1	35	
1	0	0	0	0	28	24	1020	312	1	35	
2	0	0	0	0	35	31	1020	312	1	35	
3	0	0	0	0	24	28	1020	312	1	35	
4	0	0	0	0	28	24	1020	312	1	35	
5	0	0	0	0	28	24	819	312	1	35	
6	0	0	0	0	31	28	127	312	1	35	
7	0	0	0	0	28	24	0	312	1	35	
8	0	0	0	0	28	24	0	312	1	35	
9	0	0	0	0	28	24	0	312	1	35	
10	0	0	0	0	31	28	0	312	1	35	
11	0	0	0	0	28	24	295	312	1	35	
12	0	0	0	0	28	24	1004	312	1	35	
13	0	0	0	0	35	31	1019	312	1	35	
14	0	0	0	0	24	24	1020	312	1	35	
15	0	0	0	0	28	24	1020	312	1	35	
0	0	0	0	0	28	24	1020	312	1	35	
1	0	0	0	0	35	31	1020	312	1	35	
2	0	0	0	0	31	28	1020	312	1	35	
3	0	0	0	0	28	24	1020	312	1	35	
4	0	0	0	0	28	24	1020	312	1	35	
5	0	0	0	0	28	24	1020	312	1	35	
6	0	0	0	0	35	31	1020	312	1	35	
7	0	0	0	0	28	22	1022	312	1	35	
8	0	0	0	0	28	24	1020	312	1	35	
9	0	0	0	0	28	24	931	312	1	35	
10	0	0	0	0	28	24	307	312	1	35	
11	0	0	0	0	28	24	0	312	1	35	
12	0	0	0	0	28	24	0	310	1	35	
13	0	0	0	0	28	24	0	310	1	35	
14	0	0	0	0	31	28	0	312	1	35	
15	0	0	0	0	28	24	387	312	1	35	
0	0	0	0	0	28	24	1020	312	1	35	
1	0	0	0	0	28	24	1020	312	1	35	
2	0	0	0	0	31	28	1020	312	1	35	
3	0	0	0	0	24	24	1020	312	1	35	
4	0	0	0	0	28	24	1020	312	1	35	
5	0	0	0	0	28	24	1020	312	1	35	
6	0	0	0	0	24	24	1020	312	1	35	
7	0	0	0	0	28	24	1020	312	1	35	
8	0	0	0	0	31	28	1020	312	1	35	
9	0	0	0	0	28	24	1020	312	1	35	
10	0	0	0	0	28	24	1020	312	1	35	
11	0	0	0	0	28	24	1020	312	1	35	
12	0	0	0	0	28	24	1020	312	1	35	
13	0	0	0	0	31	28	972	312	1	35	
14	0	0	0	0	24	24	376	312	1	35	
15	0	0	0	0	31	28	0	312	1	35	
0	0	0	0	0	28	24	0	312	1	35	
1	0	0	0	0	35	31	0	312	1	35	
2	0	0	0	0	35	31	0	312	1	35	
3	0	0	0	0	31	28	492	312	1	35	
4	0	0	0	0	28	24	1020	312	1	35	
5	0	0	0	0	35	31	1020	312	1	35	
6	0	0	0	0	31	28	1020	312	1	35	
7	0	0	0	0	28	24	1020	312	1	35	
8	0	0	0	0	28	24	1020	312	1	35	
9	0	0	0	0	31	28	1020	312	1	35	
10	0	0	0	0	31	28	1020	312	1	35	
11	0	0	0	0	31	28	1020	312	1	35	
12	0	0	0	0	28	24	1020	312	1	35	
13	0	0	0	0	24	24	1020	312	1	35	
14	0	0	0	0	28	24	1020	312	1	35	
15	0	0	0	0	28	24	1020	312	1	35	
0	0	0	0	0	28	24	1020	312	1	35	
1	0	0	0	0	28	24	952	312	1	35	
2	0	0	0	0	28	24	340	312	1	35	
3	0	0	0	0	28	31	0	312	1	35	
4	0	0	0	0	28	24	0	312	1	35	
5	0	0	0	0	28	24	0	312	1	35	
6	0	0	0	0	28	24	0	312	1	35	
7	0	0	0	0	31	28	275	312	1	35	
8	0	0	0	0	28	24	967	312	1	35	
9	0	0	0	0	28	24	1020	312	1	35	
10	0	0	0	0	28	24	1020	312	1	35	
11	0	0	0	0	28	24	1020	312	1	35	
12	0	0	0	0	28	24	1020	312	1	35	
13	0	0	0	0	28	24	1020	312	1	35	
14	0	0	0	0	25	24	1020	312	1	35	
15	0	0	0	0	35	31	1017	312	1	35	
0	0	0	0	0	31	28	1020	312	1	35	
1	0	0	0	0	28	24	1020	312	1	35	
2	0	0	0	0	35	31	1020	312	1	35	
3	0	0	0	0	31	28	1020	312	1	35	
4	0	0	0	0	28	24	1020	312	1	35	
5	0	0	0	0	28	24	942	312	1	35	
6	0	0	0	0	28	24	323	312	1	35	
7	0	0	0	0	28	24	0	312	1	35	
8	0	0	0	0	24	24	0	312	1	35	
9	0	0	0	0	31	28	0	312	1	35	
10	0	0	0	0	28	24	0	312	1	35	
11	0	0	0	0	31	28	284	312	1	35	
12	0	0	0	0	31	28	977	312	1	35	
13	0	0	0	0	28	24	1020	312	1	35	
14	0	0	0	0	28	24	1020	312	1	35	
15	0	0	0	0	31	28	1020	312	1	35	
0	0	0	0	0	28	24	1020	312	1	35	
1	0	0	0	0	24	24	1020	312	1	35	
2	0	0	0	0	28	24	1020	312	1	35	
3	0	0	0	0	28	24	1020	312	1	35	
4	0	0	0	0	28	24	1020	312	1	35	
5	0	0	0	0	28	24	1020	312	1	35	
6	0	0	0	0	35	31	1020	312	1	35	
7	0	0	0	0	28	24	1020	312	1	35	
8	0	0	0	0	28	24	1020	312	1	35	
9	0	0	0	0	28	24	972	312	1	35	
10	0	0	0	0	24	24	371	312	1	35	
11	0	0	0	0	28	24	0	312	1	35	
12	0	0	0	0	24	24	0	312	1	35	
13	0	0	0	0	28	24	0	312	1	35	
14	0	0	0	0	33	31	0	312	1	35	
15	0	0	0	0	28	24	504	312	1	35	
0	0	0	0	0	28	24	1020	312	1	35	
1	0	0	0	0	28	24	1020	312	1	35	
2	0	0	0	0	31	28	1020	312	1	35	
3	0	0	0	0	28	24	1020	312	1	35	
4	0	0	0	0	28	24	1020	312	1	35	
5	0	0	0	0	28	24	1020	312	1	35	
6	0	0	0	0	31	28	1020	312	1	35	
7	0	0	0	0	28	24	1020	312	1	35	
8	0	0	0	0	28	24	1020	312	1	35	
9	0	0	0	0	24	24	1020	312	1	35	
10	0	0	0	0	28	24	1020	312	1	35	
11	0	0	0	0	31	24	1022	312	1	35	
12	0	0	0	0	28	24	1020	312	1	35	
13	0	0	0	0	31	28	1020	312	1	35	
14	0	0	0	0	28	24	512	312	1	35	
15	0	0	0	0	31	28	1	312	1	35	
0	0	0	0	0	28	24	0	312	1	35	
1	0	0	0	0	31	28	0	312	1	35	
2	0	0	0	0	28	24	60	312	1	35	
3	0	0	0	0	22	25	608	312	1	35	
4	0	0	0	0	28	24	1020	312	1	35	
5	0	0	0	0	24	24	1020	312	1	35	
6	0	0	0	0	31	28	1020	312	1	35	
7	0	0	0	0	28	24	1020	312	1	35	
8	0	0	0	0	28	24	1020	312	1	35	
9	0	0	0	0	28	24	1020	312	1	35	
10	0	0	0	0	28	24	1020	312	1	35	
11	0	0	0	0	28	24	1020	312	1	35	
12	0	0	0	0	24	24	1020	312	1	35	
13	0	0	0	0	28	24	1020	312	1	35	
14	0	0	0	0	24	24	1020	312	1	35	
15	0	0	0	0	31	28	1020	312	1	35	
0	0	0	0	0	28	24	1020	312	1	35	
1	0	0	0	0	28	24	960	312	1	35	
2	0	0	0	0	28	24	368	312	1	35	
3	0	0	0	0	28	24	0	312	1	35	
4	0	0	0	0	28	24	0	312	1	35	
5	0	0	0	0	28	24	0	312	1	35	
6	0	0	0	0	31	28	0	312	1	35	
7	0	0	0	0	28	24	408	312	1	35	
8	0	0	0	0	28	24	1020	312	1	35	
9	0	0	0	0	28	24	1020	312	1	35	
10	0	0	0	0	28	24	1020	312	1	35	
11	0	0	0	0	35	31	1020	312	1	35	
12	0	0	0	0	28	24	1020	312	1	35	
13	0	0	0	0	31	28	1020	312	1	35	
14	0	0	0	0	28	24	1020	312	1	35	
15	0	0	0	0	31	28	1020	312	1	35	
0	0	0	0	0	28	24	1020	312	1	35	
1	0	0	0	0	35	31	1020	312	1	35	
2	0	0	0	0	28	24	1020	312	1	35	
3	0	0	0	0	28	24	1020	312	1	35	
4	0	0	0	0	24	24	1020	312	1	35	
5	0	0	0	0	28	24	944	312	1	35	
6	0	0	0	0	35	31	316	312	1	35	
7	0	0	0	0	31	28	0	312	1	35	
8	0	0	0	0	28	24	0	312	1	35	
9	0	0	0	0	28	24	0	312	1	35	
10	0	0	0	0	28	24	0	312	1	35	
11	0	0	0	0	28	24	300	312	1	35	
12	0	0	0	0	28	24	1004	312	1	35	
13	0	0	0	0	31	28	1020	312	1	35	
14	0	0	0	0	28	24	1020	312	1	35	
15	0	0	0	0	28	24	1020	312	1	35	
0	0	0	0	0	31	28	1020	312	1	35	
1	0	0	0	0	35	31	1020	312	1	35	
2	0	0	0	0	35	31	1020	312	1	35	
3	0	0	0	0	35	31	1017	312	1	35	
4	0	0	0	0	28	24	1020	312	1	35	
5	0	0	0	0	28	24	1020	312	1	35	
6	0	0	0	0	28	24	1020	312	1	35	
7	0	0	0	0	31	28	1020	312	1	35	
8	0	0	0	0	31	28	1020	312	1	35	
9	0	0	0	0	28	24	927	312	1	35	
10	0	0	0	0	28	24	300	312	1	35	
11	0	0	0	0	35	31	0	312	1	35	
12	0	0	0	0	28	24	0	312	1	35	
13	0	0	0	0	28	24	0	312	1	35	
14	0	0	0	0	28	24	0	312	1	35	
15	0	0	0	0	28	24	287	312	1	35	
0	0	0	0	0	28	24	985	312	1	35	
1	0	0	0	0	31	28	1020	312	1	35	
2	0	0	0	0	28	24	1020	312	1	35	
3	0	0	0	0	28	28	1020	312	1	35	
4	0	0	0	0	35	31	1020	312	1	35	
5	0	0	0	0	28	24	1020	312	1	35	
6	0	0	0	0	28	24	1020	312	1	35	
7	0	0	0	0	28	24	1020	312	1	35	
8	0	0	0	0	28	24	1020	312	1	35	
9	0	0	0	0	28	24	1020	312	1	35	
10	0	0	0	0	31	28	1020	312	1	35	
11	0	0	0	0	31	28	1020	312	1	35	
12	0	0	0	0	31	28	1020	312	1	35	
13	0	0	0	0	28	24	995	312	1	35	
14	0	0	0	0	25	24	412	312	1	35	
15	0	0	0	0	28	24	0	312	1	35	
0	0	0	0	0	28	24	0	312	1	35	
1	0	0	0	0	31	28	0	312	1	35	
2	0	0	0	0	28	24	0	312	1	35	
3	0	0	0	0	31	28	387	312	1	35	
4	0	0	0	0	31	28	1020	312	1	35	
5	0	0	0	0	31	28	1020	312	1	35	
6	0	0	0	0	28	24	1020	312	1	35	
7	0	0	0	0	28	24	1020	312	1	35	
8	0	0	0	0	31	28	1020	312	1	35	
9	0	0	0	0	28	24	1020	312	1	35	
10	0	0	0	0	24	24	1020	312	1	35	
11	0	0	0	0	28	24	1020	312	1	35	
12	0	0	0	0	28	24	1020	312	1	35	
13	0	0	0	0	28	24	1020	312	1	35	
14	0	0	0	0	31	28	1020	312	1	35	
15	0	0	0	0	28	22	1022	312	1	35	
0	0	0	0	0	28	24	1020	312	1	35	
1	0	0	0	0	28	24	1020	312	1	35	
2	0	0	0	0	24	24	472	312	1	35	
3	0	0	0	0	28	24	0	312	1	35	
4	0	0	0	0	24	24	0	312	1	35	
5	0	0	0	0	28	24	0	312	1	35	
6	0	0	0	0	28	24	0	312	1	35	
7	0	0	0	0	28	24	199	312	1	35	
8	0	0	0	0	28	24	856	312	1	35	
9	0	0	0	0	28	24	1020	312	1	35	
10	0	0	0	0	31	28	1020	312	1	35	
11	0	0	0	0	31	28	1020	312	1	35	
12	0	0	0	0	24	24	1020	312	1	35	
13	0	0	0	0	28	24	1020	312	1	35	
14	0	0	0	0	31	28	1020	312	1	35	
15	0	0	0	0	28	24	1020	312	1	35	
0	0	0	0	0	28	24	1020	312	1	35	
1	0	0	0	0	35	31	1020	312	1	35	
2	0	0	0	0	31	28	1020	312	1	35	
3	0	0	0	0	28	24	1020	312	1	35	
4	0	0	0	0	31	28	1020	312	1	35	
5	0	0	0	0	24	24	988	312	1	35	
6	0	0	0	0	28	24	399	312	1	35	
7	0	0	0	0	28	24	0	312	1	35	
8	0	0	0	0	35	31	0	312	1	35	
9	0	0	0	0	28	24	0	312	1	35	
10	0	0	0	0	31	28	0	312	1	35	
11	0	0	0	0	28	24	319	312	1	35	
12	0	0	0	0	28	24	1020	312	1	35	
13	0	0	0	0	31	28	1020	312	1	35	
14	0	0	0	0	31	28	1020	312	1	35	
15	0	0	0	0	28	24	1020	312	1	35	
0	0	0	0	0	28	24	1020	312	1	35	
1	0	0	0	0	28	24	1020	312	1	35	
2	0	0	0	0	28	24	1020	312	1	35	
3	0	0	0	0	31	31	1017	312	1	35	
4	0	0	0	0	28	24	1020	312	1	35	
5	0	0	0	0	24	24	1020	312	1	35	
6	0	0	0	0	31	28	1020	312	1	35	
7	0	0	0	0	31	28	1020	312	1	35	
8	0	0	0	0	28	24	1020	312	1	35	
9	0	0	0	0	28	24	1020	312	1	35	
10	0	0	0	0	24	24	444	312	1	35	
11	0	0	0	0	31	28	1	312	1	35	
12	0	0	0	0	28	24	0	312	1	35	
13	0	0	0	0	28	24	0	312	1	35	
14	0	0	0	0	25	24	3	312	1	35	
15	0	0	0	0	28	24	519	312	1	35	
0	0	0	0	0	35	31	1017	312	1	35	
1	0	0	0	0	35	31	1020	312	1	35	
2	0	0	0	0	28	24	1020	312	1	35	
3	0	0	0	0	28	24	1020	312	1	35	
4	0	0	0	0	24	24	1020	312	1	35	
5	0	0	0	0	28	24	1020	312	1	35	
6	0	0	0	0	24	24	1020	312	1	35	
7	0	0	0	0	28	24	1020	312	1	35	
8	0	0	0	0	28	24	1020	312	1	35	
9	0	0	0	0	24	24	1020	312	1	35	
10	0	0	0	0	28	24	1020	312	1	35	
11	0	0	0	0	35	31	1020	312	1	35	
12	0	0	0	0	31	28	1020	312	1	35	
13	0	0	0	0	28	24	1020	312	1	35	
14	0	0	0	0	28	24	675	312	1	35	
15	0	0	0	0	31	28	1	312	1	35	
0	0	0	0	0	28	24	0	312	1	35	
1	0	0	0	0	28	24	0	312	1	35	
2	0	0	0	0	28	24	0	312	1	35	
3	0	0	0	0	28	31	496	312	1	35	
4	0	0	0	0	28	24	1020	312	1	35	
5	0	0	0	0	31	28	1020	312	1	35	
6	0	0	0	0	31	28	1020	312	1	35	
7	0	0	0	0	31	28	1020	312	1	35	
8	0	0	0	0	31	28	1020	312	1	35	
9	0	0	0	0	24	24	1020	312	1	35	
10	0	0	0	0	28	24	1020	312	1	35	
11	0	0	0	0	24	24	1020	312	1	35	
12	0	0	0	0	24	24	1020	312	1	35	
13	0	0	0	0	24	24	1020	312	1	35	
14	0	0	0	0	24	24	1020	312	1	35	
15	0	0	0	0	28	24	1020	312	1	35	
0	0	0	0	0	28	24	1020	312	1	35	
1	0	0	0	0	28	24	1020	312	1	35	
2	0	0	0	0	31	28	569	312	1	35	
3	0	0	0	0	28	24	1	312	1	35	
4	0	0	0	0	28	24	0	312	1	35	
5	0	0	0	0	28	24	0	312	1	35	
6	0	0	0	0	28	24	0	312	1	35	
7	0	0	0	0	28	24	440	312	1	35	
8	0	0	0	0	24	24	1020	312	1	35	
9	0	0	0	0	24	24	1020	312	1	35	
10	0	0	0	0	28	24	1020	312	1	35	
11	0	0	0	0	31	28	1020	312	1	35	
12	0	0	0	0	31	28	1020	312	1	35	
13	0	0	0	0	24	24	1020	312	1	35	
14	0	0	0	0	31	28	1020	312	1	35	
15	0	0	0	0	28	24	1020	312	1	35	
0	0	0	0	0	28	24	1020	312	1	35	
1	0	0	0	0	35	31	1020	312	1	35	
2	0	0	0	0	28	24	1020	312	1	35	
3	0	0	0	0	24	24	1022	312	1	35	
4	0	0	0	0	31	28	1020	312	1	35	
5	0	0	0	0	28	24	952	312	1	35	
6	0	0	0	0	28	24	327	312	1	35	
7	0	0	0	0	31	28	0	312	1	35	
8	0	0	0	0	28	24	0	312	1	35	
9	0	0	0	0	28	24	0	312	1	35	
10	0	0	0	0	31	28	0	312	1	35	
11	0	0	0	0	31	28	327	312	1	35	
12	0	0	0	0	28	24	1020	312	1	35	
13	0	0	0	0	31	28	1020	312	1	35	
14	0	0	0	0	24	24	1020	312	1	35	
15	0	0	0	0	31	28	1020	312	1	35	
0	0	0	0	0	28	24	1020	312	1	35	
1	0	0	0	0	31	28	1020	312	1	35	
2	0	0	0	0	28	24	1020	312	1	35	
3	0	0	0	0	28	24	1020	312	1	35	
4	0	0	0	0	31	28	1020	312	1	35	
5	0	0	0	0	28	24	1020	312	1	35	
6	0	0	0	0	28	24	1020	312	1	35	
7	0	0	0	0	28	24	1020	312	1	35	
8	0	0	0	0	31	28	1020	312	1	35	
9	0	0	0	0	31	28	1020	312	1	35	
10	0	0	0	0	28	24	448	312	1	35	
11	0	0	0	0	35	31	0	312	1	35	
12	0	0	0	0	28	24	0	312	1	35	
13	0	0	0	0	28	24	0	312	1	35	
14	0	0	0	0	31	28	0	312	1	35	
15	0	0	0	0	28	24	263	312	1	35	
0	0	0	0	0	28	24	952	312	1	35	
1	0	0	0	0	28	24	1020	312	1	35	
2	0	0	0	0	28	24	1020	312	1	35	
3	0	0	0	0	24	28	1020	312	1	35	
4	0	0	0	0	35	31	1020	312	1	35	
5	0	0	0	0	28	24	1020	312	1	35	
6	0	0	0	0	24	24	1020	312	1	35	
7	0	0	0	0	28	24	1020	312	1	35	
8	0	0	0	0	31	28	1020	312	1	35	
9	0	0	0	0	35	31	1019	312	1	35	
10	0	0	0	0	28	24	1020	312	1	35	
11	0	0	0	0	28	24	1020	312	1	35	
12	0	0	0	0	28	24	1020	312	1	35	
13	0	0	0	0	28	24	1020	312	1	35	
14	0	0	0	0	25	24	454	312	1	35	
15	0	0	0	0	35	31	0	312	1	35	
0	0	0	0	0	28	24	0	312	1	35	
1	0	0	0	0	24	24	0	312	1	35	
2	0	0	0	0	28	24	0	312	1	35	
3	0	0	0	0	31	28	273	312	1	35	
4	0	0	0	0	28	24	966	312	1	35	
5	0	0	0	0	28	24	1020	312	1	35	
6	0	0	0	0	28	24	1020	312	1	35	
7	0	0	0	0	31	28	1020	312	1	35	
8	0	0	0	0	31	28	1020	312	1	35	
9	0	0	0	0	28	24	1020	312	1	35	
10	0	0	0	0	35	31	1020	312	1	35	
11	0	0	0	0	31	28	1020	312	1	35	
12	0	0	0	0	28	24	1020	312	1	35	
13	0	0	0	0	35	31	1020	312	1	35	
14	0	0	0	0	28	24	1020	312	1	35	
15	0	0	0	0	24	24	1020	312	1	35	
0	0	0	0	0	31	28	1020	312	1	35	
1	0	0	0	0	28	24	947	312	1	35	
2	0	0	0	0	28	24	332	312	1	35	
3	0	0	0	0	28	24	0	312	1	35	
4	0	0	0	0	31	28	0	312	1	35	
5	0	0	0	0	31	28	0	312	1	35	
6	0	0	0	0	31	28	0	312	1	35	
7	0	0	0	0	31	28	158	312	1	35	
8	0	0	0	0	28	24	796	312	1	35	
9	0	0	0	0	28	24	1020	312	1	35	
10	0	0	0	0	28	24	1020	312	1	35	
11	0	0	0	0	28	24	1020	312	1	35	
12	0	0	0	0	31	28	1020	312	1	35	
13	0	0	0	0	28	24	1020	312	1	35	
14	0	0	0	0	30	28	1020	312	1	35	
15	0	0	0	0	28	24	1020	312	1	35	
0	0	0	0	0	31	28	1020	312	1	35	
1	0	0	0	0	24	24	1020	312	1	35	
2	0	0	0	0	28	24	1020	312	1	35	
3	0	0	0	0	28	24	1020	312	1	35	
4	0	0	0	0	31	28	1020	312	1	35	
5	0	0	0	0	28	24	963	312	1	35	
6	0	0	0	0	31	28	359	312	1	35	
7	0	0	0	0	31	28	0	312	1	35	
8	0	0	0	0	28	24	0	312	1	35	
9	0	0	0	0	31	28	0	312	1	35	
10	0	0	0	0	28	24	0	312	1	35	
11	0	0	0	0	31	28	199	312	1	35	
12	0	0	0	0	28	24	856	312	1	35	
13	0	0	0	0	31	28	1020	312	1	35	
14	0	0	0	0	31	28	1020	312	1	35	
15	0	0	0	0	24	24	1020	312	1	35	
0	0	0	0	0	28	24	1020	312	1	35	
1	0	0	0	0	31	28	1020	312	1	35	
2	0	0	0	0	28	24	1020	312	1	35	
3	0	0	0	0	24	24	1020	312	1	35	
4	0	0	0	0	28	24	1020	312	1	35	
5	0	0	0	0	28	24	1020	312	1	35	
6	0	0	0	0	28	24	1020	312	1	35	
7	0	0	0	0	24	22	1022	312	1	35	
8	0	0	0	0	24	24	1020	312	1	35	
9	0	0	0	0	28	24	1020	312	1	35	
10	0	0	0	0	28	24	647	312	1	35	
11	0	0	0	0	28	24	1	312	1	35	
12	0	0	0	0	28	24	0	312	1	35	
13	0	0	0	0	24	24	0	312	1	35	
14	0	0	0	0	25	24	31	312	1	35	
15	0	0	0	0	28	24	553	312	1	35	
0	0	0	0	0	31	28	1020	312	1	35	
1	0	0	0	0	31	28	1020	312	1	35	
2	0	0	0	0	28	24	1020	312	1	35	
3	0	0	0	0	28	24	1020	312	1	35	
4	0	0	0	0	35	31	1020	312	1	35	
5	0	0	0	0	28	24	1020	312	1	35	
6	0	0	0	0	28	24	1020	312	1	35	
7	0	0	0	0	31	28	1020	312	1	35	
8	0	0	0	0	24	24	1020	312	1	35	
9	0	0	0	0	31	28	1020	312	1	35	
10	0	0	0	0	28	24	1020	312	1	35	
11	0	0	0	0	28	24	1020	312	1	35	
12	0	0	0	0	31	28	1020	312	1	35	
13	0	0	0	0	28	24	1020	312	1	35	
14	0	0	0	0	28	24	632	312	1	35	
15	0	0	0	0	31	28	1	312	1	35	
0	0	0	0	0	28	24	0	312	1	35	
1	0	0	0	0	28	24	0	312	1	35	
2	0	0	0	0	28	24	0	312	1	35	
3	0	0	0	0	28	24	339	312	1	35	
4	0	0	0	0	31	28	1020	312	1	35	
5	0	0	0	0	28	24	1020	312	1	35	
6	0	0	0	0	28	24	1020	312	1	35	
7	0	0	0	0	28	24	1020	312	1	35	
8	0	0	0	0	28	24	1020	312	1	35	
9	0	0	0	0	31	28	1020	312	1	35	
10	0	0	0	0	35	31	1020	312	1	35	
11	0	0	0	0	28	24	1020	312	1	35	
12	0	0	0	0	28	24	1020	312	1	35	
13	0	0	0	0	28	24	1020	312	1	35	
14	0	0	0	0	24	24	1020	312	1	35	
15	0	0	0	0	28	24	1020	312	1	35	
0	0	0	0	0	24	24	1020	312	1	35	
1	0	0	0	0	31	28	1020	312	1	35	
2	0	0	0	0	31	28	518	312	1	35	
3	0	0	0	0	31	28	0	312	1	35	
4	0	0	0	0	28	24	0	312	1	35	
5	0	0	0	0	28	24	0	312	1	35	
6	0	0	0	0	28	24	0	312	1	35	
7	0	0	0	0	28	24	312	312	1	35	
8	0	0	0	0	28	24	1016	312	1	35	
9	0	0	0	0	35	31	1019	312	1	35	
10	0	0	0	0	28	24	1020	312	1	35	
11	0	0	0	0	31	28	1020	312	1	35	
12	0	0	0	0	35	31	1020	312	2	35	
13	0	0	0	0	31	28	1020	312	1	35	
14	0	0	0	0	28	24	1020	312	1	35	
15	0	0	0	0	28	24	1020	312	1	35	
0	0	0	0	0	28	24	1020	312	1	35	
1	0	0	0	0	35	31	1019	312	1	35	
2	0	0	0	0	28	24	1020	312	1	35	
3	0	0	0	0	24	24	1020	312	1	35	
4	0	0	0	0	31	28	1020	312	1	35	
5	0	0	0	0	28	24	1020	312	1	35	
6	0	0	0	0	31	28	572	312	1	35	
7	0	0	0	0	28	24	1	312	1	35	
8	0	0	0	0	28	24	0	312	1	35	
9	0	0	0	0	24	24	0	312	1	35	
10	0	0	0	0	28	24	0	312	1	35	
11	0	0	0	0	35	31	380	312	1	35	
12	0	0	0	0	28	24	1020	312	1	35	
13	0	0	0	0	31	28	1020	312	1	35	
14	0	0	0	0	25	24	1020	312	1	35	
15	0	0	0	0	28	24	1020	312	1	35	
0	0	0	0	0	28	24	1020	312	1	35	
1	0	0	0	0	28	24	1020	312	1	35	
2	0	0	0	0	28	24	1020	312	1	35	
3	0	0	0	0	28	24	1020	312	1	35	
4	0	0	0	0	28	24	1020	312	1	35	
5	0	0	0	0	31	28	1020	312	1	35	
6	0	0	0	0	31	28	1020	312	1	35	
7	0	0	0	0	28	24	1020	312	1	35	
8	0	0	0	0	28	24	1020	312	1	35	
9	0	0	0	0	28	24	1020	312	1	35	
10	0	0	0	0	28	24	551	312	1	35	
11	0	0	0	0	28	24	1	312	1	35	
12	0	0	0	0	28	24	0	312	1	35	
13	0	0	0	0	28	24	0	312	1	35	
14	0	0	0	0	31	28	0	312	1	35	
15	0	0	0	0	31	28	409	312	1	35	
0	0	0	0	0	35	31	1017	312	1	35	
1	0	0	0	0	28	24	1020	312	1	35	
2	0	0	0	0	28	24	1020	312	1	35	
3	0	0	0	0	24	28	1020	312	1	35	
4	0	0	0	0	24	24	1020	312	1	35	
5	0	0	0	0	28	24	1020	312	1	35	
6	0	0	0	0	28	24	1020	312	1	35	
7	0	0	0	0	35	31	1017	312	1	35	
8	0	0	0	0	31	28	1020	312	1	35	
9	0	0	0	0	35	31	1019	312	1	35	
10	0	0	0	0	31	28	1020	312	1	35	
11	0	0	0	0	31	24	1022	312	1	35	
12	0	0	0	0	35	31	1020	312	1	35	
13	0	0	0	0	31	28	1020	312	1	35	
14	0	0	0	0	25	24	611	312	1	35	
15	0	0	0	0	28	24	1	312	1	35	
0	0	0	0	0	31	28	0	312	1	35	
1	0	0	0	0	28	24	0	312	1	35	
2	0	0	0	0	28	24	0	312	1	35	
3	0	0	0	0	28	24	364	312	1	35	
4	0	0	0	0	28	24	1020	312	1	35	
5	0	0	0	0	28	24	1020	312	1	35	
6	0	0	0	0	31	28	1020	312	1	35	
7	0	0	0	0	31	28	1020	312	1	35	
8	0	0	0	0	28	24	1020	312	1	35	
9	0	0	0	0	31	28	1020	312	1	35	
10	0	0	0	0	35	31	1020	312	1	35	
11	0	0	0	0	24	24	1020	312	1	35	
12	0	0	0	0	28	24	1020	312	1	35	
13	0	0	0	0	28	24	1020	312	1	35	
14	0	0	0	0	28	24	1020	312	1	35	
15	0	0	0	0	28	24	1020	312	1	35	
0	0	0	0	0	28	24	1020	312	1	35	
1	0	0	0	0	31	28	1020	312	1	35	
2	0	0	0	0	28	24	585	312	1	35	
3	0	0	0	0	24	24	1	312	1	35	
4	0	0	0	0	28	24	0	312	1	35	
5	0	0	0	0	28	24	0	312	1	35	
6	0	0	0	0	31	28	0	312	1	35	
7	0	0	0	0	31	28	225	312	1	35	
8	0	0	0	0	28	24	896	312	1	35	
9	0	0	0	0	31	28	1020	312	1	35	
10	0	0	0	0	31	28	1020	312	1	35	
11	0	0	0	0	31	28	1020	312	1	35	
12	0	0	0	0	24	24	1020	312	1	35	
13	0	0	0	0	28	24	1020	312	1	35	
14	0	0	0	0	24	24	1020	312	1	35	
15	0	0	0	0	28	24	1020	312	1	35	
0	0	0	0	0	35	31	1017	312	1	35	
1	0	0	0	0	31	28	1020	312	1	35	
2	0	0	0	0	28	24	1020	312	1	35	
3	0	0	0	0	28	24	1020	312	1	35	
4	0	0	0	0	31	28	1020	312	1	35	
5	0	0	0	0	28	24	1020	312	1	35	
6	0	0	0	0	28	24	508	312	1	35	
7	0	0	0	0	28	24	0	312	1	35	
8	0	0	0	0	28	24	0	312	1	35	
9	0	0	0	0	28	24	0	312	1	35	
10	0	0	0	0	28	24	0	312	1	35	
11	0	0	0	0	35	31	127	312	1	35	
12	0	0	0	0	28	24	743	312	1	35	
13	0	0	0	0	31	28	1020	312	1	35	
14	0	0	0	0	28	24	1020	312	1	35	
15	0	0	0	0	31	28	1020	312	1	35	
0	0	0	0	0	28	24	1020	312	1	35	
1	0	0	0	0	31	28	1020	312	1	35	
2	0	0	0	0	24	24	1020	312	1	35	
3	0	0	0	0	24	28	1020	312	1	35	
4	0	0	0	0	35	31	1017	312	1	35	
5	0	0	0	0	24	24	1020	312	1	35	
6	0	0	0	0	31	28	1020	312	1	35	
7	0	0	0	0	31	28	1020	312	1	35	
8	0	0	0	0	28	24	1020	312	1	35	
9	0	0	0	0	28	24	1020	312	1	35	
10	0	0	0	0	28	24	502	312	1	35	
11	0	0	0	0	31	28	0	312	1	35	
12	0	0	0	0	28	24	0	312	1	35	
13	0	0	0	0	31	28	0	312	1	35	
14	0	0	0	0	25	24	0	312	1	35	
15	0	0	0	0	28	24	224	312	1	35	
0	0	0	0	0	31	28	896	312	1	35	
1	0	0	0	0	31	28	1020	312	1	35	
2	0	0	0	0	28	24	1020	312	1	35	
3	0	0	0	0	28	24	1020	312	1	35	
4	0	0	0	0	28	24	1020	312	1	35	
5	0	0	0	0	28	24	1020	312	1	35	
6	0	0	0	0	28	24	1020	312	1	35	
7	0	0	0	0	28	24	1020	312	1	35	
8	0	0	0	0	31	28	1020	312	1	35	
9	0	0	0	0	28	24	1020	312	1	35	
10	0	0	0	0	31	28	1020	312	1	35	
11	0	0	0	0	24	24	1020	312	1	35	
12	0	0	0	0	28	24	1020	312	1	35	
13	0	0	0	0	28	24	1020	312	1	35	
14	0	0	0	0	28	24	512	312	1	35	
15	0	0	0	0	24	24	0	312	1	35	
0	0	0	0	0	35	31	0	312	1	35	
1	0	0	0	0	28	24	0	312	1	35	
2	0	0	0	0	31	28	0	312	1	35	
3	0	0	0	0	28	28	217	312	1	35	
4	0	0	0	0	28	24	883	312	1	35	
5	0	0	0	0	28	24	1020	312	1	35	
6	0	0	0	0	31	28	1020	312	1	35	
7	0	0	0	0	31	28	1020	312	1	35	
8	0	0	0	0	31	28	1020	312	1	35	
9	0	0	0	0	28	24	1020	312	1	35	
10	0	0	0	0	28	24	1020	312	1	35	
11	0	0	0	0	28	24	1020	312	1	35	
12	0	0	0	0	28	24	1020	312	1	35	
13	0	0	0	0	31	28	1020	312	1	35	
14	0	0	0	0	30	28	1020	312	1	35	
15	0	0	0	0	24	22	1022	312	1	35	
0	0	0	0	0	31	28	1020	312	1	35	
1	0	0	0	0	28	24	1020	312	1	35	
2	0	0	0	0	31	28	543	312	1	35	
3	0	0	0	0	28	24	0	312	1	35	
4	0	0	0	0	31	28	0	312	1	35	
5	0	0	0	0	28	24	0	312	1	35	
6	0	0	0	0	28	24	0	312	1	35	
7	0	0	0	0	28	24	156	312	1	35	
8	0	0	0	0	31	28	792	312	1	35	
9	0	0	0	0	31	28	1020	312	1	35	
10	0	0	0	0	28	24	1020	312	1	35	
11	0	0	0	0	35	31	1020	312	1	35	
12	0	0	0	0	28	24	1020	312	1	35	
13	0	0	0	0	28	24	1020	312	1	35	
14	0	0	0	0	31	28	1020	312	1	35	
15	0	0	0	0	28	24	1020	312	1	35	
0	0	0	0	0	28	24	1020	312	1	35	
1	0	0	0	0	28	24	1020	312	1	35	
2	0	0	0	0	28	24	1020	312	1	35	
3	0	0	0	0	24	28	1020	312	1	35	
4	0	0	0	0	35	31	1020	312	1	35	
5	0	0	0	0	31	28	1020	312	1	35	
6	0	0	0	0	35	31	502	312	1	35	
7	0	0	0	0	31	28	0	312	1	35	
8	0	0	0	0	28	24	0	312	1	35	
9	0	0	0	0	28	24	0	312	1	35	
10	0	0	0	0	28	24	0	312	1	35	
11	0	0	0	0	24	24	159	312	1	35	
12	0	0	0	0	28	24	796	312	1	35	
13	0	0	0	0	28	24	1020	312	1	35	
14	0	0	0	0	25	24	1020	312	1	35	
15	0	0	0	0	28	24	1020	312	1	35	
0	0	0	0	0	28	24	1020	312	1	35	
1	0	0	0	0	31	28	1020	312	1	35	
2	0	0	0	0	28	24	1020	312	1	35	
3	0	0	0	0	31	28	1020	312	1	35	
4	0	0	0	0	28	24	1020	312	1	35	
5	0	0	0	0	28	24	1020	312	1	35	
6	0	0	0	0	28	24	1020	312	1	35	
7	0	0	0	0	28	24	1020	312	1	35	
8	0	0	0	0	24	24	1020	312	1	35	
9	0	0	0	0	28	24	1020	312	1	35	
10	0	0	0	0	35	31	504	312	1	35	
11	0	0	0	0	31	28	0	312	1	35	
12	0	0	0	0	31	28	0	312	1	35	
13	0	0	0	0	28	24	0	312	1	35	
14	0	0	0	0	35	31	0	312	1	35	
15	0	0	0	0	31	28	300	312	1	35	
0	0	0	0	0	28	24	999	312	1	35	
1	0	0	0	0	28	24	1020	312	1	35	
2	0	0	0	0	31	28	1020	312	1	35	
3	0	0	0	0	31	28	1020	312	1	35	
4	0	0	0	0	31	28	1020	312	1	35	
5	0	0	0	0	28	24	1020	312	1	35	
6	0	0	0	0	28	24	1020	312	1	35	
7	0	0	0	0	31	28	1020	312	1	35	
8	0	0	0	0	28	24	1020	312	1	35	
9	0	0	0	0	28	24	1020	312	1	35	
10	0	0	0	0	28	24	1020	312	1	35	
11	0	0	0	0	28	24	1020	312	1	35	
12	0	0	0	0	31	28	1020	312	1	35	
13	0	0	0	0	28	24	1020	312	1	35	
14	0	0	0	0	30	28	595	312	1	35	
15	0	0	0	0	28	24	1	312	1	35	
0	0	0	0	0	31	28	0	312	1	35	
1	0	0	0	0	24	24	0	312	1	35	
2	0	0	0	0	28	24	0	312	1	35	
3	0	0	0	0	28	24	345	312	1	35	
4	0	0	0	0	28	24	1020	312	1	35	
5	0	0	0	0	24	24	1020	312	1	35	
6	0	0	0	0	28	24	1020	312	1	35	
7	0	0	0	0	24	24	1020	312	1	35	
8	0	0	0	0	28	24	1020	312	1	35	
9	0	0	0	0	35	31	1020	312	1	35	
10	0	0	0	0	28	24	1020	312	1	35	
11	0	0	0	0	35	31	1019	312	1	35	
12	0	0	0	0	28	24	1020	312	1	35	
13	0	0	0	0	31	28	1020	312	1	35	
14	0	0	0	0	28	24	1020	312	1	35	
15	0	0	0	0	31	28	1020	312	1	35	
0	0	0	0	0	28	24	1020	312	1	35	
1	0	0	0	0	28	24	1020	312	1	35	
2	0	0	0	0	31	28	665	312	1	35	
3	0	0	0	0	24	24	1	312	1	35	
4	0	0	0	0	28	24	0	312	1	35	
5	0	0	0	0	24	24	0	312	1	35	
6	0	0	0	0	31	28	0	312	1	35	
7	0	0	0	0	28	24	89	312	1	35	
8	0	0	0	0	28	24	681	312	1	35	
9	0	0	0	0	28	24	1020	312	1	35	
10	0	0	0	0	31	28	1020	312	1	35	
11	0	0	0	0	28	24	1020	312	1	35	
12	0	0	0	0	28	24	1020	312	1	35	
13	0	0	0	0	28	24	1020	312	1	35	
14	0	0	0	0	25	24	1020	312	1	35	
15	0	0	0	0	28	24	1020	312	1	35	
0	0	0	0	0	31	28	1020	312	1	35	
1	0	0	0	0	35	31	1020	312	1	35	
2	0	0	0	0	31	28	1020	312	1	35	
3	0	0	0	0	28	22	1022	312	1	35	
4	0	0	0	0	28	24	1020	312	1	35	
5	0	0	0	0	28	24	448	312	1	35	
6	0	0	0	0	28	24	0	312	1	35	
7	0	0	0	0	31	28	0	312	1	35	
8	0	0	0	0	28	24	0	312	1	35	
9	0	0	0	0	28	24	0	312	1	35	
10	0	0	0	0	28	24	0	312	1	35	
11	0	0	0	0	28	24	0	312	1	35	
12	0	0	0	0	28	24	0	312	1	35	
13	0	0	0	0	31	28	319	312	1	35	
14	0	0	0	0	31	28	1020	312	1	35	
15	0	0	0	0	31	28	1020	312	1	35	
0	0	0	0	0	28	24	1020	312	1	35	
1	0	0	0	0	28	24	1020	312	1	35	
2	0	0	0	0	28	24	1020	312	1	35	
3	0	0	0	0	28	24	1020	312	1	35	
4	0	0	0	0	31	28	1020	312	1	35	
5	0	0	0	0	28	24	1020	312	1	35	
6	0	0	0	0	28	24	1020	312	1	35	
7	0	0	0	0	28	24	969	312	1	35	
8	0	0	0	0	28	24	371	312	1	35	
9	0	0	0	0	31	28	0	312	1	35	
10	0	0	0	0	35	31	0	312	1	35	
11	0	0	0	0	28	24	0	312	1	35	
12	0	0	0	0	28	24	0	312	1	35	
13	0	0	0	0	28	24	0	312	1	35	
14	0	0	0	0	24	24	0	312	1	35	
15	0	0	0	0	28	24	0	312	1	35	
0	0	0	0	0	24	24	0	312	1	35	
1	0	0	0	0	28	24	47	312	1	35	
2	0	0	0	0	35	31	632	312	1	35	
3	0	0	0	0	31	28	1020	312	1	35	
4	0	0	0	0	28	24	1020	312	1	35	
5	0	0	0	0	28	24	1020	312	1	35	
6	0	0	0	0	28	24	1020	312	1	35	
7	0	0	0	0	28	24	1020	312	1	35	
8	0	0	0	0	28	24	1020	312	1	35	
9	0	0	0	0	35	31	1020	312	1	35	
10	0	0	0	0	31	28	1020	312	1	35	
11	0	0	0	0	31	28	836	312	1	35	
12	0	0	0	0	31	28	169	312	1	35	
13	0	0	0	0	28	24	0	312	1	35	
14	0	0	0	0	28	24	0	312	1	35	
15	0	0	0	0	28	24	0	312	1	35	
0	0	0	0	0	24	24	0	312	1	35	
1	0	0	0	0	28	24	0	312	1	35	
2	0	0	0	0	28	24	0	312	1	35	
3	0	0	0	0	24	24	0	312	1	35	
4	0	0	0	0	31	28	0	312	1	35	
5	0	0	0	0	35	31	0	312	1	35	
6	0	0	0	0	28	24	521	312	1	35	
7	0	0	0	0	28	24	1020	312	1	35	
8	0	0	0	0	28	24	1020	312	1	35	
9	0	0	0	0	31	28	1020	312	1	35	
10	0	0	0	0	28	24	1020	312	1	35	
11	0	0	0	0	28	24	1020	312	1	35	
12	0	0	0	0	31	28	1020	312	1	35	
13	0	0	0	0	31	28	1020	312	1	35	
14	0	0	0	0	25	24	1020	312	1	35	
15	0	0	0	0	28	24	792	312	1	35	
0	0	0	0	0	28	24	103	312	1	35	
1	0	0	0	0	28	24	0	312	1	35	
2	0	0	0	0	28	24	0	312	1	35	
3	0	0	0	0	28	24	0	312	1	35	
4	0	0	0	0	28	24	0	312	1	35	
5	0	0	0	0	28	24	0	312	1	35	
6	0	0	0	0	28	24	0	312	1	35	
7	0	0	0	0	31	28	0	312	1	35	
8	0	0	0	0	31	28	0	312	1	35	
9	0	0	0	0	31	28	0	312	1	35	
10	0	0	0	0	31	28	548	312	1	35	
11	0	0	0	0	28	24	1020	312	1	35	
12	0	0	0	0	28	24	1020	312	1	35	
13	0	0	0	0	31	28	1020	312	1	35	
14	0	0	0	0	28	24	1020	312	1	35	
15	0	0	0	0	28	24	1020	312	1	35	
0	0	0	0	0	28	24	1020	312	1	35	
1	0	0	0	0	31	28	1020	312	1	35	
2	0	0	0	0	28	24	1020	312	1	35	
3	0	0	0	0	24	28	775	312	1	35	
4	0	0	0	0	28	24	79	312	1	35	
5	0	0	0	0	28	24	0	312	1	35	
6	0	0	0	0	28	24	0	312	1	35	
7	0	0	0	0	35	31	0	312	1	35	
8	0	0	0	0	35	31	0	312	1	35	
9	0	0	0	0	28	24	0	312	1	35	
10	0	0	0	0	31	28	0	312	1	35	
11	0	0	0	0	31	28	0	312	1	35	
12	0	0	0	0	28	24	0	312	1	35	
13	0	0	0	0	28	24	0	312	1	35	
14	0	0	0	0	24	24	441	312	1	35	
15	0	0	0	0	28	24	1020	312	1	35	
0	0	0	0	0	24	24	1020	312	1	35	
1	0	0	0	0	28	24	1020	312	1	35	
2	0	0	0	0	31	28	1020	312	1	35	
3	0	0	0	0	31	28	1020	312	1	35	
4	0	0	0	0	28	24	1020	312	1	35	
5	0	0	0	0	28	24	1020	312	1	35	
6	0	0	0	0	28	24	1020	312	1	35	
7	0	0	0	0	28	22	856	312	1	35	
8	0	0	0	0	31	28	192	312	1	35	
9	0	0	0	0	28	24	0	312	1	35	
10	0	0	0	0	31	28	0	312	1	35	
11	0	0	0	0	28	24	0	312	1	35	
12	0	0	0	0	28	24	0	312	1	35	
13	0	0	0	0	31	28	0	312	1	35	
14	0	0	0	0	31	28	0	312	1	35	
15	0	0	0	0	28	24	0	312	1	35	
0	0	0	0	0	31	28	0	312	1	35	
1	0	0	0	0	28	24	508	312	1	35	
2	0	0	0	0	31	28	1020	312	1	35	
3	0	0	0	0	24	24	1020	312	1	35	
4	0	0	0	0	28	24	1020	312	1	35	
5	0	0	0	0	28	24	1020	312	1	35	
6	0	0	0	0	28	24	1020	312	1	35	
7	0	0	0	0	31	28	1020	312	1	35	
8	0	0	0	0	31	28	1020	312	1	35	
9	0	0	0	0	35	31	1017	312	1	35	
10	0	0	0	0	28	24	1020	312	1	35	
11	0	0	0	0	28	24	1020	312	1	35	
12	0	0	0	0	28	24	1020	312	1	35	
13	0	0	0	0	28	24	935	312	1	35	
14	0	0	0	0	25	24	316	312	1	35	
15	0	0	0	0	24	24	0	312	1	35	
0	0	0	0	0	28	24	0	312	1	35	
1	0	0	0	0	31	28	0	312	1	35	
2	0	0	0	0	28	24	0	312	1	35	
3	0	0	0	0	31	28	465	312	1	35	
4	0	0	0	0	28	24	1020	312	1	35	
5	0	0	0	0	28	24	1020	312	1	35	
6	0	0	0	0	28	24	1020	312	1	35	
7	0	0	0	0	28	24	1020	312	1	35	
8	0	0	0	0	24	24	1020	312	1	35	
9	0	0	0	0	28	24	1020	312	1	35	
10	0	0	0	0	24	24	1020	312	1	35	
11	0	0	0	0	28	24	1020	312	1	35	
12	0	0	0	0	28	24	1020	312	1	35	
13	0	0	0	0	31	28	1020	312	1	35	
14	0	0	0	0	31	28	1020	312	1	35	
15	0	0	0	0	28	24	1020	312	1	35	
0	0	0	0	0	28	24	1020	312	1	35	
1	0	0	0	0	28	24	1020	312	1	35	
2	0	0	0	0	31	28	902	312	1	35	
3	0	0	0	0	24	28	358	312	1	35	
4	0	0	0	0	28	24	1	312	1	35	
5	0	0	0	0	24	24	0	312	1	35	
6	0	0	0	0	24	24	316	312	1	35	
7	0	0	0	0	28	24	942	312	1	35	
8	0	0	0	0	28	24	1020	312	1	35	
9	0	0	0	0	28	24	1020	312	1	35	
10	0	0	0	0	28	24	1020	312	1	35	
11	0	0	0	0	28	24	1020	312	1	35	
12	0	0	0	0	28	24	1020	312	1	35	
13	0	0	0	0	28	24	1020	312	1	35	
14	0	0	0	0	25	24	1020	312	1	35	
15	0	0	0	0	28	24	1020	312	1	35	
0	0	0	0	0	24	24	1020	312	1	35	
1	0	0	0	0	28	24	1020	312	1	35	
2	0	0	0	0	35	31	1020	312	1	35	
3	0	0	0	0	28	24	1020	312	1	35	
4	0	0	0	0	28	24	1020	312	1	35	
5	0	0	0	0	31	28	1020	312	1	35	
6	0	0	0	0	28	24	990	312	1	35	
7	0	0	0	0	28	24	472	312	1	35	
8	0	0	0	0	28	24	31	312	1	35	
9	0	0	0	0	28	24	0	312	1	35	
10	0	0	0	0	28	24	273	312	1	35	
11	0	0	0	0	31	28	880	312	1	35	
12	0	0	0	0	31	28	1020	312	1	35	
13	0	0	0	0	31	28	1020	312	1	35	
14	0	0	0	0	31	28	1020	312	1	35	
15	0	0	0	0	31	28	1020	312	1	35	
0	0	0	0	0	31	28	1020	312	1	35	
1	0	0	0	0	28	24	1020	312	1	35	
2	0	0	0	0	28	24	1020	312	1	35	
3	0	0	0	0	24	24	1020	312	1	35	
4	0	0	0	0	24	24	1020	312	1	35	
5	0	0	0	0	31	28	1020	312	1	35	
6	0	0	0	0	31	28	1020	312	1	35	
7	0	0	0	0	24	24	1020	312	1	35	
8	0	0	0	0	28	24	1020	312	1	35	
9	0	0	0	0	28	24	1020	312	1	35	
10	0	0	0	0	28	24	960	312	1	35	
11	0	0	0	0	31	28	409	312	1	35	
12	0	0	0	0	28	24	1	312	1	35	
13	0	0	0	0	31	28	0	312	1	35	
14	0	0	0	0	24	24	167	312	1	35	
15	0	0	0	0	31	28	736	312	1	35	
0	0	0	0	0	28	24	1020	312	1	35	
1	0	0	0	0	31	28	1020	312	1	35	
2	0	0	0	0	28	24	1020	312	1	35	
3	0	0	0	0	31	28	1020	312	1	35	
4	0	0	0	0	28	24	1020	312	1	35	
5	0	0	0	0	28	24	1020	312	1	35	
6	0	0	0	0	35	31	1020	312	1	35	
7	0	0	0	0	28	24	1020	312	1	35	
8	0	0	0	0	31	28	1020	312	1	35	
9	0	0	0	0	24	24	1020	312	1	35	
10	0	0	0	0	24	24	1020	312	1	35	
11	0	0	0	0	31	24	1022	312	1	35	
12	0	0	0	0	28	24	1020	312	1	35	
13	0	0	0	0	31	28	1020	312	1	35	
14	0	0	0	0	28	24	975	312	1	35	
15	0	0	0	0	28	24	455	312	1	35	
0	0	0	0	0	28	24	39	312	1	35	
1	0	0	0	0	28	24	1	312	1	35	
2	0	0	0	0	24	24	316	312	1	35	
3	0	0	0	0	24	28	935	312	1	35	
4	0	0	0	0	35	31	1019	312	1	35	
5	0	0	0	0	28	24	1020	312	1	35	
6	0	0	0	0	31	28	1020	312	1	35	
7	0	0	0	0	28	24	1020	312	1	35	
8	0	0	0	0	28	24	1020	312	1	35	
9	0	0	0	0	28	24	1020	312	1	35	
10	0	0	0	0	28	24	1020	312	1	35	
11	0	0	0	0	28	24	1020	312	1	35	
12	0	0	0	0	28	24	1020	312	1	35	
13	0	0	0	0	28	24	1020	312	1	35	
14	0	0	0	0	31	28	1020	312	1	35	
15	0	0	0	0	28	24	1020	312	1	35	
0	0	0	0	0	28	24	1020	312	1	35	
1	0	0	0	0	35	31	1020	312	1	35	
2	0	0	0	0	28	24	1020	312	1	35	
3	0	0	0	0	28	24	611	312	1	35	
4	0	0	0	0	28	24	241	312	1	35	
5	0	0	0	0	28	24	224	312	1	35	
6	0	0	0	0	35	31	556	312	1	35	
7	0	0	0	0	28	24	1020	312	1	35	
8	0	0	0	0	31	28	1020	312	1	35	
9	0	0	0	0	28	24	1020	312	1	35	
10	0	0	0	0	28	24	1020	312	1	35	
11	0	0	0	0	28	24	1020	312	1	35	
12	0	0	0	0	28	24	1020	312	1	35	
13	0	0	0	0	31	28	1020	312	1	35	
14	0	0	0	0	28	24	1020	312	1	35	
15	0	0	0	0	28	24	1020	312	1	35	
0	0	0	0	0	28	24	1020	312	1	35	
1	0	0	0	0	31	28	1020	312	1	35	
2	0	0	0	0	28	24	1020	312	1	35	
3	0	0	0	0	31	28	1020	312	1	35	
4	0	0	0	0	28	24	1020	312	1	35	
5	0	0	0	0	28	24	1020	312	1	35	
6	0	0	0	0	31	28	984	312	1	35	
7	0	0	0	0	28	24	444	312	1	35	
8	0	0	0	0	31	28	1	312	1	35	
9	0	0	0	0	31	28	0	312	1	35	
10	0	0	0	0	31	28	96	312	1	35	
11	0	0	0	0	28	24	615	312	1	35	
12	0	0	0	0	28	24	1020	312	1	35	
13	0	0	0	0	28	24	1020	312	1	35	
14	0	0	0	0	24	24	1020	312	1	35	
15	0	0	0	0	28	24	1020	312	1	35	
0	0	0	0	0	31	28	1020	312	1	35	
1	0	0	0	0	31	28	1020	312	1	35	
2	0	0	0	0	31	28	1020	312	1	35	
3	0	0	0	0	31	28	1020	312	1	35	
4	0	0	0	0	28	24	1020	312	1	35	
5	0	0	0	0	28	24	1020	312	1	35	
6	0	0	0	0	28	24	1020	312	1	35	
7	0	0	0	0	28	24	1020	312	1	35	
8	0	0	0	0	28	24	1020	312	1	35	
9	0	0	0	0	28	24	1020	312	1	35	
10	0	0	0	0	31	28	896	312	1	35	
11	0	0	0	0	31	28	281	312	1	35	
12	0	0	0	0	35	31	1	312	1	35	
13	0	0	0	0	28	24	0	312	1	35	
14	0	0	0	0	28	24	0	312	1	35	
15	0	0	0	0	28	24	472	312	1	35	
0	0	0	0	0	24	24	1020	312	1	35	
1	0	0	0	0	28	24	1020	312	1	35	
2	0	0	0	0	28	24	1020	312	1	35	
3	0	0	0	0	31	31	1020	312	1	35	
4	0	0	0	0	28	24	1020	312	1	35	
5	0	0	0	0	28	24	1020	312	1	35	
6	0	0	0	0	31	28	1020	312	1	35	
7	0	0	0	0	31	28	1020	312	1	35	
8	0	0	0	0	28	24	1020	312	1	35	
9	0	0	0	0	28	24	1020	312	1	35	
10	0	0	0	0	28	24	1020	312	1	35	
11	0	0	0	0	31	28	1020	312	1	35	
12	0	0	0	0	35	31	1020	312	1	35	
13	0	0	0	0	28	24	1020	312	1	35	
14	0	0	0	0	31	28	870	312	1	35	
15	0	0	0	0	28	24	248	312	1	35	
0	0	0	0	0	28	24	1	312	1	35	
1	0	0	0	0	31	28	0	312	1	35	
2	0	0	0	0	31	28	0	312	1	35	
3	0	0	0	0	28	24	467	312	1	35	
4	0	0	0	0	31	28	1020	312	1	35	
5	0	0	0	0	28	24	1020	312	1	35	
6	0	0	0	0	28	24	1020	312	1	35	
7	0	0	0	0	31	28	1020	312	1	35	
8	0	0	0	0	28	24	1020	312	1	35	
9	0	0	0	0	31	28	1020	312	1	35	
10	0	0	0	0	28	24	1020	312	1	35	
11	0	0	0	0	31	28	1020	312	1	35	
12	0	0	0	0	28	24	1020	312	1	35	
13	0	0	0	0	28	24	1020	312	1	35	
14	0	0	0	0	24	24	1020	312	1	35	
15	0	0	0	0	28	22	1022	312	1	35	
0	0	0	0	0	31	28	1020	312	1	35	
1	0	0	0	0	31	28	1020	312	1	35	
2	0	0	0	0	31	28	927	312	1	35	
3	0	0	0	0	28	24	334	312	1	35	
4	0	0	0	0	28	24	1	312	1	35	
5	0	0	0	0	31	28	0	312	1	35	
6	0	0	0	0	28	24	7	312	1	35	
7	0	0	0	0	31	28	476	312	1	35	
8	0	0	0	0	28	24	1020	312	1	35	
9	0	0	0	0	31	28	1020	312	1	35	
10	0	0	0	0	28	24	1020	312	1	35	
11	0	0	0	0	31	28	1020	312	1	35	
12	0	0	0	0	28	24	1020	312	1	35	
13	0	0	0	0	28	24	1020	312	1	35	
14	0	0	0	0	31	28	1020	312	1	35	
15	0	0	0	0	35	31	1020	312	1	35	
0	0	0	0	0	28	24	1020	312	1	35	
1	0	0	0	0	31	28	1020	312	1	35	
2	0	0	0	0	31	28	1020	312	1	35	
3	0	0	0	0	28	24	1020	312	1	35	
4	0	0	0	0	28	24	1020	312	1	35	
5	0	0	0	0	28	24	1020	312	1	35	
6	0	0	0	0	24	24	927	312	1	35	
7	0	0	0	0	31	28	348	312	1	35	
8	0	0	0	0	31	28	1	312	1	35	
9	0	0	0	0	28	24	0	312	1	35	
10	0	0	0	0	31	28	88	312	1	35	
11	0	0	0	0	28	24	620	312	1	35	
12	0	0	0	0	28	24	1020	312	1	35	
13	0	0	0	0	28	24	1020	312	1	35	
14	0	0	0	0	28	24	1020	312	1	35	
15	0	0	0	0	28	24	1020	312	1	35	
0	0	0	0	0	28	24	1020	312	1	35	
1	0	0	0	0	24	24	1020	312	1	35	
2	0	0	0	0	28	24	1020	312	1	35	
3	0	0	0	0	24	24	1020	312	1	35	
4	0	0	0	0	28	24	1020	312	1	35	
5	0	0	0	0	28	24	1020	312	1	35	
6	0	0	0	0	28	24	1020	312	1	35	
7	0	0	0	0	31	28	1020	312	1	35	
8	0	0	0	0	31	28	1020	312	1	35	
9	0	0	0	0	28	24	1020	312	1	35	
10	0	0	0	0	31	28	892	312	1	35	
11	0	0	0	0	28	24	263	312	1	35	
12	0	0	0	0	28	24	1	312	1	35	
13	0	0	0	0	28	24	0	312	1	35	
14	0	0	0	0	24	24	0	312	1	35	
15	0	0	0	0	28	24	271	312	1	35	
0	0	0	0	0	28	24	947	312	1	35	
1	0	0	0	0	24	24	1020	312	1	35	
2	0	0	0	0	28	24	1020	312	1	35	
3	0	0	0	0	28	24	1020	312	1	35	
4	0	0	0	0	28	24	1020	312	1	35	
5	0	0	0	0	28	24	1020	312	1	35	
6	0	0	0	0	28	24	1020	312	1	35	
7	0	0	0	0	28	24	1020	312	1	35	
8	0	0	0	0	28	24	1020	312	1	35	
9	0	0	0	0	31	28	1020	312	1	35	
10	0	0	0	0	28	24	1020	312	1	35	
11	0	0	0	0	35	31	1020	312	1	35	
12	0	0	0	0	28	24	1020	312	1	35	
13	0	0	0	0	28	24	1020	312	1	35	
14	0	0	0	0	28	24	856	312	1	35	
15	0	0	0	0	31	28	224	312	1	35	
0	0	0	0	0	24	24	1	312	1	35	
1	0	0	0	0	28	24	0	312	1	35	
2	0	0	0	0	35	31	0	312	1	35	
3	0	0	0	0	24	28	396	312	1	35	
4	0	0	0	0	28	24	1020	312	1	35	
5	0	0	0	0	28	24	1020	312	1	35	
6	0	0	0	0	28	24	1020	312	1	35	
7	0	0	0	0	28	24	1020	312	1	35	
8	0	0	0	0	28	24	1020	312	1	35	
9	0	0	0	0	28	24	1020	312	1	35	
10	0	0	0	0	31	28	1020	312	1	35	
11	0	0	0	0	28	24	1020	312	1	35	
12	0	0	0	0	28	24	1020	312	1	35	
13	0	0	0	0	35	31	1017	312	1	35	
14	0	0	0	0	24	24	1020	312	1	35	
15	0	0	0	0	31	28	1020	312	1	35	
0	0	0	0	0	28	24	1020	312	1	35	
1	0	0	0	0	35	31	1020	312	1	35	
2	0	0	0	0	31	28	915	312	1	35	
3	0	0	0	0	31	28	307	312	1	35	
4	0	0	0	0	28	24	1	312	1	35	
5	0	0	0	0	28	24	0	312	1	35	
6	0	0	0	0	35	31	0	312	1	35	
7	0	0	0	0	28	24	396	312	1	35	
8	0	0	0	0	28	24	1020	312	1	35	
9	0	0	0	0	28	24	1020	312	1	35	
10	0	0	0	0	31	28	1020	312	1	35	
11	0	0	0	0	28	24	1020	312	1	35	
12	0	0	0	0	28	24	1020	312	1	35	
13	0	0	0	0	28	24	1020	312	1	35	
14	0	0	0	0	28	24	1020	312	1	35	
15	0	0	0	0	31	28	1020	312	1	35	
0	0	0	0	0	28	24	1020	312	1	35	
1	0	0	0	0	28	24	1020	312	1	35	
2	0	0	0	0	28	24	1020	312	1	35	
3	0	0	0	0	27	28	1022	312	1	35	
4	0	0	0	0	28	24	1020	312	1	35	
5	0	0	0	0	28	24	1020	312	1	35	
6	0	0	0	0	24	24	899	312	1	35	
7	0	0	0	0	28	24	287	312	1	35	
8	0	0	0	0	31	28	1	312	1	35	
9	0	0	0	0	28	24	0	312	1	35	
10	0	0	0	0	28	24	0	312	1	35	
11	0	0	0	0	28	24	300	312	1	35	
12	0	0	0	0	28	24	984	312	1	35	
13	0	0	0	0	28	24	1020	312	1	35	
14	0	0	0	0	35	31	1020	312	1	35	
15	0	0	0	0	31	28	1020	312	1	35	
0	0	0	0	0	28	24	1020	312	1	35	
1	0	0	0	0	31	28	1020	312	1	35	
2	0	0	0	0	28	24	1020	312	1	35	
3	0	0	0	0	31	28	1020	312	1	35	
4	0	0	0	0	31	28	1020	312	1	35	
5	0	0	0	0	28	24	1020	312	1	35	
6	0	0	0	0	28	24	1020	312	1	35	
7	0	0	0	0	31	28	1020	312	1	35	
8	0	0	0	0	28	24	1020	312	1	35	
9	0	0	0	0	24	24	1020	312	1	35	
10	0	0	0	0	28	24	911	312	1	35	
11	0	0	0	0	24	24	287	312	1	35	
12	0	0	0	0	28	24	1	312	1	35	
13	0	0	0	0	28	24	0	312	1	35	
14	0	0	0	0	28	24	0	312	1	35	
15	0	0	0	0	28	24	263	312	1	35	
0	0	0	0	0	31	28	931	312	1	35	
1	0	0	0	0	31	28	1020	312	1	35	
2	0	0	0	0	28	24	1020	312	1	35	
3	0	0	0	0	24	28	1020	312	1	35	
4	0	0	0	0	28	24	1020	312	1	35	
5	0	0	0	0	31	28	1020	312	1	35	
6	0	0	0	0	28	24	1020	312	1	35	
7	0	0	0	0	28	24	1020	312	1	35	
8	0	0	0	0	28	24	1020	312	1	35	
9	0	0	0	0	28	24	1020	312	1	35	
10	0	0	0	0	31	28	1020	312	1	35	
11	0	0	0	0	31	28	1020	312	1	35	
12	0	0	0	0	31	28	1020	312	1	35	
13	0	0	0	0	28	24	1020	312	1	35	
14	0	0	0	0	25	24	927	312	1	35	
15	0	0	0	0	28	24	319	312	1	35	
0	0	0	0	0	28	24	1	312	1	35	
1	0	0	0	0	28	24	0	312	1	35	
2	0	0	0	0	28	24	0	312	1	35	
3	0	0	0	0	28	24	295	312	1	35	
4	0	0	0	0	28	24	979	312	1	35	
5	0	0	0	0	31	28	1020	312	1	35	
6	0	0	0	0	28	24	1020	312	1	35	
7	0	0	0	0	31	28	1020	312	1	35	
8	0	0	0	0	28	24	1020	312	1	35	
9	0	0	0	0	28	24	1020	312	1	35	
10	0	0	0	0	28	24	1020	312	1	35	
11	0	0	0	0	28	24	1020	312	1	35	
12	0	0	0	0	28	24	1020	312	1	35	
13	0	0	0	0	28	24	1020	312	1	35	
14	0	0	0	0	28	24	1020	312	1	35	
15	0	0	0	0	28	24	1020	312	1	35	
0	0	0	0	0	28	24	1020	312	1	35	
1	0	0	0	0	31	28	1020	312	1	35	
2	0	0	0	0	28	24	935	312	1	35	
3	0	0	0	0	24	24	327	312	1	35	
4	0	0	0	0	31	28	1	312	1	35	
5	0	0	0	0	28	24	0	312	1	35	
6	0	0	0	0	24	24	0	312	1	35	
7	0	0	0	0	35	31	268	312	1	35	
8	0	0	0	0	24	24	935	312	1	35	
9	0	0	0	0	31	28	1020	312	1	35	
10	0	0	0	0	31	28	1020	312	1	35	
11	0	0	0	0	28	24	1020	312	1	35	
12	0	0	0	0	31	28	1020	312	1	35	
13	0	0	0	0	31	28	1020	312	1	35	
14	0	0	0	0	24	24	1020	312	1	35	
15	0	0	0	0	28	24	1020	312	1	35	
0	0	0	0	0	35	31	1017	312	1	35	
1	0	0	0	0	31	28	1020	312	1	35	
2	0	0	0	0	31	28	1020	312	1	35	
3	0	0	0	0	31	28	1020	312	1	35	
4	0	0	0	0	28	24	1020	312	1	35	
5	0	0	0	0	28	24	1020	312	1	35	
6	0	0	0	0	31	28	902	312	1	35	
7	0	0	0	0	24	24	271	312	1	35	
8	0	0	0	0	28	24	1	312	1	35	
9	0	0	0	0	24	24	0	312	1	35	
10	0	0	0	0	28	24	0	312	1	35	
11	0	0	0	0	31	28	209	312	1	35	
12	0	0	0	0	28	24	851	312	1	35	
13	0	0	0	0	31	28	1020	312	1	35	
14	0	0	0	0	28	24	1020	312	1	35	
15	0	0	0	0	31	28	1020	312	1	35	
0	0	0	0	0	31	28	1020	312	1	35	
1	0	0	0	0	31	28	1020	312	1	35	
2	0	0	0	0	28	24	1020	312	1	35	
3	0	0	0	0	24	28	1020	312	1	35	
4	0	0	0	0	35	31	1017	312	1	35	
5	0	0	0	0	28	24	1020	312	1	35	
6	0	0	0	0	31	28	1020	312	1	35	
7	0	0	0	0	31	24	1022	312	1	35	
8	0	0	0	0	28	24	1020	312	1	35	
9	0	0	0	0	28	24	1020	312	1	35	
10	0	0	0	0	28	24	873	312	1	35	
11	0	0	0	0	28	24	236	312	1	35	
12	0	0	0	0	28	24	0	312	1	35	
13	0	0	0	0	31	28	0	312	1	35	
14	0	0	0	0	25	24	0	312	1	35	
15	0	0	0	0	28	24	262	312	1	35	
0	0	0	0	0	28	24	931	312	1	35	
1	0	0	0	0	31	28	1020	312	1	35	
2	0	0	0	0	28	24	1020	312	1	35	
3	0	0	0	0	31	28	1020	312	1	35	
4	0	0	0	0	28	24	1020	312	1	35	
5	0	0	0	0	28	24	1020	312	1	35	
6	0	0	0	0	31	28	1020	312	1	35	
7	0	0	0	0	31	28	1020	312	1	35	
8	0	0	0	0	31	28	1020	312	1	35	
9	0	0	0	0	28	24	1020	312	1	35	
10	0	0	0	0	28	24	1020	312	1	35	
11	0	0	0	0	35	31	1020	312	1	35	
12	0	0	0	0	35	31	1020	312	1	35	
13	0	0	0	0	28	24	1020	312	1	35	
14	0	0	0	0	31	28	903	312	1	35	
15	0	0	0	0	24	24	275	312	1	35	
0	0	0	0	0	28	24	0	312	1	35	
1	0	0	0	0	24	24	0	312	1	35	
2	0	0	0	0	31	28	0	312	1	35	
3	0	0	0	0	31	28	209	312	1	35	
4	0	0	0	0	31	28	856	312	1	35	
5	0	0	0	0	28	24	1020	312	1	35	
6	0	0	0	0	35	31	1020	312	1	35	
7	0	0	0	0	28	24	1020	312	1	35	
8	0	0	0	0	28	24	1020	312	1	35	
9	0	0	0	0	31	28	1020	312	1	35	
10	0	0	0	0	31	28	1020	312	1	35	
11	0	0	0	0	28	24	1020	312	1	35	
12	0	0	0	0	35	31	1017	312	1	35	
13	0	0	0	0	28	24	1020	312	1	35	
14	0	0	0	0	30	28	1020	312	1	35	
15	0	0	0	0	28	24	1020	312	1	35	
0	0	0	0	0	31	28	1020	312	1	35	
1	0	0	0	0	31	28	1020	312	1	35	
2	0	0	0	0	28	24	945	312	1	35	
3	0	0	0	0	28	24	335	312	1	35	
4	0	0	0	0	28	24	1	312	1	35	
5	0	0	0	0	35	31	0	312	1	35	
6	0	0	0	0	28	24	0	312	1	35	
7	0	0	0	0	31	28	182	312	1	35	
8	0	0	0	0	28	24	808	312	1	35	
9	0	0	0	0	28	24	1020	312	1	35	
10	0	0	0	0	24	24	1020	312	1	35	
11	0	0	0	0	28	24	1020	312	1	35	
12	0	0	0	0	31	28	1020	312	1	35	
13	0	0	0	0	31	28	1020	312	1	35	
14	0	0	0	0	28	24	1020	312	1	35	
15	0	0	0	0	28	24	1020	312	1	35	
0	0	0	0	0	24	24	1020	312	1	35	
1	0	0	0	0	28	24	1020	312	1	35	
2	0	0	0	0	28	24	1020	312	1	35	
3	0	0	0	0	24	24	1020	312	1	35	
4	0	0	0	0	28	24	1020	312	1	35	
5	0	0	0	0	28	24	1020	312	1	35	
6	0	0	0	0	28	24	944	312	1	35	
7	0	0	0	0	28	24	345	312	1	35	
8	0	0	0	0	31	28	1	312	1	35	
9	0	0	0	0	28	24	0	312	1	35	
10	0	0	0	0	28	24	0	312	1	35	
11	0	0	0	0	31	28	224	312	1	35	
12	0	0	0	0	28	24	871	312	1	35	
13	0	0	0	0	31	28	1020	312	1	35	
14	0	0	0	0	25	24	1020	312	1	35	
15	0	0	0	0	31	28	1020	312	1	35	
0	0	0	0	0	28	24	1020	312	1	35	
1	0	0	0	0	28	24	1020	312	1	35	
2	0	0	0	0	28	24	1020	312	1	35	
3	0	0	0	0	28	24	1020	312	1	35	
4	0	0	0	0	28	24	1020	312	1	35	
5	0	0	0	0	31	28	1020	312	1	35	
6	0	0	0	0	31	28	1020	312	1	35	
7	0	0	0	0	28	24	1020	312	1	35	
8	0	0	0	0	28	24	1020	312	1	35	
9	0	0	0	0	28	24	1020	312	1	35	
10	0	0	0	0	31	28	871	312	1	35	
11	0	0	0	0	31	28	216	312	1	35	
12	0	0	0	0	28	24	0	312	1	35	
13	0	0	0	0	28	24	0	312	1	35	
14	0	0	0	0	28	24	0	312	1	35	
15	0	0	0	0	28	24	126	312	1	35	
0	0	0	0	0	28	24	728	312	1	35	
1	0	0	0	0	31	28	1020	312	1	35	
2	0	0	0	0	31	28	1020	312	1	35	
3	0	0	0	0	28	24	1020	312	1	35	
4	0	0	0	0	31	28	1020	312	1	35	
5	0	0	0	0	28	24	1020	312	1	35	
6	0	0	0	0	31	28	1020	312	1	35	
7	0	0	0	0	28	24	1020	312	1	35	
8	0	0	0	0	31	28	1020	312	1	35	
9	0	0	0	0	31	28	1020	312	1	35	
10	0	0	0	0	31	28	1020	312	1	35	
11	0	0	0	0	28	22	1022	312	1	35	
12	0	0	0	0	31	28	1020	312	1	35	
13	0	0	0	0	28	24	1020	312	1	35	
14	0	0	0	0	31	28	831	312	1	35	
15	0	0	0	0	31	28	167	312	1	35	
0	0	0	0	0	31	28	0	312	1	35	
1	0	0	0	0	31	28	0	312	1	35	
2	0	0	0	0	28	24	0	312	1	35	
3	0	0	0	0	28	24	152	312	1	35	
4	0	0	0	0	31	28	774	312	1	35	
5	0	0	0	0	28	24	1020	312	1	35	
6	0	0	0	0	28	24	1020	312	1	35	
7	0	0	0	0	28	24	1020	312	1	35	
8	0	0	0	0	28	24	1020	312	1	35	
9	0	0	0	0	31	28	1020	312	1	35	
10	0	0	0	0	28	24	1020	312	1	35	
11	0	0	0	0	31	28	1020	312	1	35	
12	0	0	0	0	24	24	1020	312	1	35	
13	0	0	0	0	28	24	1020	312	1	35	
14	0	0	0	0	31	28	1020	312	1	35	
15	0	0	0	0	28	24	1020	312	1	35	
0	0	0	0	0	28	24	1020	312	1	35	
1	0	0	0	0	31	28	1020	312	1	35	
2	0	0	0	0	24	24	854	312	1	35	
3	0	0	0	0	28	28	193	312	1	35	
4	0	0	0	0	31	28	0	312	1	35	
5	0	0	0	0	28	24	0	312	1	35	
6	0	0	0	0	31	28	0	312	1	35	
7	0	0	0	0	24	24	63	312	1	35	
8	0	0	0	0	28	24	632	312	1	35	
9	0	0	0	0	31	28	1020	312	1	35	
10	0	0	0	0	28	24	1020	312	1	35	
11	0	0	0	0	31	28	1020	312	1	35	
12	0	0	0	0	28	24	1020	312	1	35	
13	0	0	0	0	28	24	1020	312	1	35	
14	0	0	0	0	25	24	1020	312	1	35	
15	0	0	0	0	28	24	1020	312	1	35	
0	0	0	0	0	28	24	1020	312	1	35	
1	0	0	0	0	28	24	1020	312	1	35	
2	0	0	0	0	28	24	1020	312	1	35	
3	0	0	0	0	28	24	1020	312	1	35	
4	0	0	0	0	28	24	1020	312	1	35	
5	0	0	0	0	31	28	1020	312	1	35	
6	0	0	0	0	31	28	924	312	1	35	
7	0	0	0	0	28	24	304	312	1	35	
8	0	0	0	0	31	28	0	312	1	35	
9	0	0	0	0	31	28	0	312	1	35	
10	0	0	0	0	28	24	0	312	1	35	
11	0	0	0	0	35	31	135	312	1	35	
12	0	0	0	0	28	24	736	312	1	35	
13	0	0	0	0	28	24	1020	312	1	35	
14	0	0	0	0	28	24	1020	312	1	35	
15	0	0	0	0	31	28	1020	312	1	35	
0	0	0	0	0	24	24	1020	312	1	35	
1	0	0	0	0	28	24	1020	312	1	35	
2	0	0	0	0	35	31	1020	312	1	35	
3	0	0	0	0	24	28	1020	312	1	35	
4	0	0	0	0	28	24	1020	312	1	35	
5	0	0	0	0	28	24	1020	312	1	35	
6	0	0	0	0	28	24	1020	312	1	35	
7	0	0	0	0	28	24	1020	312	1	35	
8	0	0	0	0	28	24	1020	312	1	35	
9	0	0	0	0	28	24	1020	312	1	35	
10	0	0	0	0	28	24	969	312	1	35	
11	0	0	0	0	28	24	376	312	1	35	
12	0	0	0	0	31	28	1	312	1	35	
13	0	0	0	0	28	24	0	312	1	35	
14	0	0	0	0	31	28	0	312	1	35	
15	0	0	0	0	31	28	140	312	1	35	
0	0	0	0	0	31	28	745	312	1	35	
1	0	0	0	0	35	31	1017	312	1	35	
2	0	0	0	0	28	24	1020	312	1	35	
3	0	0	0	0	31	28	1020	312	1	35	
4	0	0	0	0	28	24	1020	312	1	35	
5	0	0	0	0	31	28	1020	312	1	35	
6	0	0	0	0	35	31	1020	312	1	35	
7	0	0	0	0	28	24	1020	312	1	35	
8	0	0	0	0	28	24	1020	312	1	35	
9	0	0	0	0	28	24	1020	312	1	35	
10	0	0	0	0	31	28	1020	312	1	35	
11	0	0	0	0	28	24	1020	312	1	35	
12	0	0	0	0	28	24	1020	312	1	35	
13	0	0	0	0	28	24	1020	312	1	35	
14	0	0	0	0	28	24	915	312	1	35	
15	0	0	0	0	31	28	287	312	1	35	
0	0	0	0	0	24	24	0	312	1	35	
1	0	0	0	0	24	24	0	312	1	35	
2	0	0	0	0	28	24	0	312	1	35	
3	0	0	0	0	24	24	103	312	1	35	
4	0	0	0	0	28	24	696	312	1	35	
5	0	0	0	0	28	24	1020	312	1	35	
6	0	0	0	0	28	24	1020	312	1	35	
7	0	0	0	0	31	28	1020	312	1	35	
8	0	0	0	0	31	28	1020	312	1	35	
9	0	0	0	0	28	24	1020	312	1	35	
10	0	0	0	0	35	31	1020	312	1	35	
11	0	0	0	0	28	24	1020	312	1	35	
12	0	0	0	0	28	24	1020	312	1	35	
13	0	0	0	0	28	24	1020	312	1	35	
14	0	0	0	0	25	24	1020	312	1	35	
15	0	0	0	0	28	22	1022	312	1	35	
0	0	0	0	0	30	28	1020	312	1	35	
1	0	0	0	0	35	31	1020	312	1	35	
2	0	0	0	0	28	24	915	312	1	35	
3	0	0	0	0	28	24	287	312	1	35	
4	0	0	0	0	28	24	0	312	1	35	
5	0	0	0	0	28	24	0	312	1	35	
6	0	0	0	0	28	24	0	312	1	35	
7	0	0	0	0	35	31	142	312	1	35	
8	0	0	0	0	28	24	752	312	1	35	
9	0	0	0	0	35	31	1017	312	1	35	
10	0	0	0	0	31	28	1020	312	1	35	
11	0	0	0	0	24	24	1020	312	1	35	
12	0	0	0	0	28	24	1020	312	1	35	
13	0	0	0	0	28	24	1020	312	1	35	
14	0	0	0	0	28	24	1020	312	1	35	
15	0	0	0	0	28	24	1020	312	1	35	
0	0	0	0	0	31	28	1020	312	1	35	
1	0	0	0	0	31	28	1020	312	1	35	
2	0	0	0	0	28	24	1020	312	1	35	
3	0	0	0	0	24	28	1020	312	1	35	
4	0	0	0	0	28	24	1020	312	1	35	
5	0	0	0	0	31	28	1020	312	1	35	
6	0	0	0	0	31	28	969	312	1	35	
7	0	0	0	0	28	24	396	312	1	35	
8	0	0	0	0	24	24	1	312	1	35	
9	0	0	0	0	28	24	0	312	1	35	
10	0	0	0	0	31	28	0	312	1	35	
11	0	0	0	0	31	28	355	312	1	35	
12	0	0	0	0	31	28	1020	312	1	35	
13	0	0	0	0	28	24	1020	312	1	35	
14	0	0	0	0	25	24	1020	312	1	35	
15	0	0	0	0	28	24	1020	312	1	35	
0	0	0	0	0	28	24	1020	312	1	35	
1	0	0	0	0	28	24	1020	312	1	35	
2	0	0	0	0	28	24	1020	312	1	35	
3	0	0	0	0	28	24	1020	312	1	35	
4	0	0	0	0	28	24	1020	312	1	35	
5	0	0	0	0	31	28	1020	312	1	35	
6	0	0	0	0	28	24	1020	312	1	35	
7	0	0	0	0	31	28	1020	312	1	35	
8	0	0	0	0	35	31	1020	312	1	35	
9	0	0	0	0	28	24	1020	312	1	35	
10	0	0	0	0	28	24	1020	312	1	35	
11	0	0	0	0	24	24	451	312	1	35	
12	0	0	0	0	31	28	1	312	1	35	
13	0	0	0	0	28	24	0	312	1	35	
14	0	0	0	0	31	28	0	312	1	35	
15	0	0	0	0	31	28	270	312	1	35	
0	0	0	0	0	28	24	934	312	1	35	
1	0	0	0	0	28	24	1020	312	1	35	
2	0	0	0	0	28	24	1020	312	1	35	
3	0	0	0	0	24	24	1020	312	1	35	
4	0	0	0	0	31	28	1020	312	1	35	
5	0	0	0	0	28	24	1020	312	1	35	
6	0	0	0	0	24	24	1020	312	1	35	
7	0	0	0	0	35	31	1020	312	1	35	
8	0	0	0	0	31	28	1020	312	1	35	
9	0	0	0	0	28	24	1020	312	1	35	
10	0	0	0	0	28	24	1020	312	1	35	
11	0	0	0	0	31	28	1020	312	1	35	
12	0	0	0	0	28	24	1020	312	1	35	
13	0	0	0	0	31	28	1020	312	1	35	
14	0	0	0	0	24	24	897	312	1	35	
15	0	0	0	0	28	24	255	312	1	35	
0	0	0	0	0	35	31	0	312	1	35	
1	0	0	0	0	31	28	0	312	1	35	
2	0	0	0	0	31	28	0	312	1	35	
3	0	0	0	0	31	28	24	312	1	35	
4	0	0	0	0	28	24	561	312	1	35	
5	0	0	0	0	28	24	1020	312	1	35	
6	0	0	0	0	31	28	1020	312	1	35	
7	0	0	0	0	24	24	1020	312	1	35	
8	0	0	0	0	28	24	1020	312	1	35	
9	0	0	0	0	24	24	1020	312	1	35	
10	0	0	0	0	28	24	1020	312	1	35	
11	0	0	0	0	31	28	1020	312	1	35	
12	0	0	0	0	28	24	1020	312	1	35	
13	0	0	0	0	31	28	1020	312	1	35	
14	0	0	0	0	28	24	1020	312	1	35	
15	0	0	0	0	31	28	1020	312	1	35	
0	0	0	0	0	31	28	1020	312	1	35	
1	0	0	0	0	28	24	1020	312	1	35	
2	0	0	0	0	28	24	878	312	1	35	
3	0	0	0	0	28	31	233	312	1	35	
4	0	0	0	0	35	31	0	312	1	35	
5	0	0	0	0	28	24	0	312	1	35	
6	0	0	0	0	31	28	0	312	1	35	
7	0	0	0	0	28	24	177	312	1	35	
8	0	0	0	0	31	28	807	312	1	35	
9	0	0	0	0	31	28	1020	312	1	35	
10	0	0	0	0	28	24	1020	312	1	35	
11	0	0	0	0	31	28	1020	312	1	35	
12	0	0	0	0	28	24	1020	312	1	35	
13	0	0	0	0	31	28	1020	312	1	35	
14	0	0	0	0	25	24	1020	312	1	35	
15	0	0	0	0	28	24	1020	312	1	35	
0	0	0	0	0	24	24	1020	312	1	35	
1	0	0	0	0	31	28	1020	312	1	35	
2	0	0	0	0	28	24	1020	312	1	35	
3	0	0	0	0	28	22	1022	312	1	35	
4	0	0	0	0	28	24	1020	312	1	35	
5	0	0	0	0	28	24	1020	312	1	35	
6	0	0	0	0	28	24	926	312	1	35	
7	0	0	0	0	28	24	302	312	1	35	
8	0	0	0	0	28	24	0	312	1	35	
9	0	0	0	0	24	24	0	312	1	35	
10	0	0	0	0	28	24	0	312	1	35	
11	0	0	0	0	28	24	62	312	1	35	
12	0	0	0	0	28	24	620	312	1	35	
13	0	0	0	0	28	24	1020	312	1	35	
14	0	0	0	0	28	24	1020	312	1	35	
15	0	0	0	0	28	24	1020	312	1	35	
0	0	0	0	0	28	24	1020	312	1	35	
1	0	0	0	0	28	24	1020	312	1	35	
2	0	0	0	0	35	31	1020	312	1	35	
3	0	0	0	0	28	24	1020	312	1	35	
4	0	0	0	0	28	24	1020	312	1	35	
5	0	0	0	0	35	31	1017	312	1	35	
6	0	0	0	0	31	28	1020	312	1	35	
7	0	0	0	0	28	24	1020	312	1	35	
8	0	0	0	0	28	24	1020	312	1	35	
9	0	0	0	0	28	24	1020	312	1	35	
10	0	0	0	0	28	24	851	312	1	35	
11	0	0	0	0	28	24	185	312	1	35	
12	0	0	0	0	31	28	0	312	1	35	
13	0	0	0	0	31	28	0	312	1	35	
14	0	0	0	0	24	24	0	312	1	35	
15	0	0	0	0	31	28	0	312	1	35	
0	0	0	0	0	28	24	494	312	1	35	
1	0	0	0	0	35	31	1017	312	1	35	
2	0	0	0	0	24	24	1020	312	1	35	
3	0	0	0	0	28	24	1020	312	1	35	
4	0	0	0	0	28	24	1020	312	1	35	
5	0	0	0	0	28	24	1020	312	1	35	
6	0	0	0	0	28	24	1020	312	1	35	
7	0	0	0	0	31	28	1020	312	1	35	
8	0	0	0	0	31	28	1020	312	1	35	
9	0	0	0	0	28	24	1020	312	1	35	
10	0	0	0	0	28	24	1020	312	1	35	
11	0	0	0	0	35	31	1020	312	1	35	
12	0	0	0	0	28	24	1020	312	1	35	
13	0	0	0	0	31	28	1020	312	1	35	
14	0	0	0	0	28	24	824	312	1	35	
15	0	0	0	0	31	28	147	312	1	35	
0	0	0	0	0	31	28	0	312	1	35	
1	0	0	0	0	31	28	0	312	1	35	
2	0	0	0	0	28	24	0	312	1	35	
3	0	0	0	0	24	24	0	312	1	35	
4	0	0	0	0	28	24	529	312	1	35	
5	0	0	0	0	28	24	1020	312	1	35	
6	0	0	0	0	31	28	1020	312	1	35	
7	0	0	0	0	28	24	1020	312	1	35	
8	0	0	0	0	28	24	1020	312	1	35	
9	0	0	0	0	28	24	1020	312	1	35	
10	0	0	0	0	31	28	1020	312	1	35	
11	0	0	0	0	31	28	1020	312	1	35	
12	0	0	0	0	28	24	1020	312	1	35	
13	0	0	0	0	28	24	1020	312	1	35	
14	0	0	0	0	25	24	1020	312	1	35	
15	0	0	0	0	28	24	1020	312	1	35	
0	0	0	0	0	28	24	1020	312	1	35	
1	0	0	0	0	35	31	1020	312	1	35	
2	0	0	0	0	28	24	814	312	1	35	
3	0	0	0	0	31	28	131	312	1	35	
4	0	0	0	0	31	28	0	312	1	35	
5	0	0	0	0	28	24	0	312	1	35	
6	0	0	0	0	28	24	0	312	1	35	
7	0	0	0	0	31	28	0	312	1	35	
8	0	0	0	0	28	24	472	312	1	35	
9	0	0	0	0	28	24	1020	312	1	35	
10	0	0	0	0	28	24	1020	312	1	35	
11	0	0	0	0	35	31	1020	312	1	35	
12	0	0	0	0	28	24	1020	312	1	35	
13	0	0	0	0	28	24	1020	312	1	35	
14	0	0	0	0	28	24	1020	312	1	35	
15	0	0	0	0	28	24	1020	312	1	35	
0	0	0	0	0	31	28	1020	312	1	35	
1	0	0	0	0	28	24	1020	312	1	35	
2	0	0	0	0	31	28	1020	312	1	35	
3	0	0	0	0	28	24	1020	312	1	35	
4	0	0	0	0	28	24	1020	312	1	35	
5	0	0	0	0	24	24	1020	312	1	35	
6	0	0	0	0	31	28	888	312	1	35	
7	0	0	0	0	31	28	255	312	1	35	
8	0	0	0	0	28	24	0	312	1	35	
9	0	0	0	0	31	28	0	312	1	35	
10	0	0	0	0	28	24	0	312	1	35	
11	0	0	0	0	28	24	63	312	1	35	
12	0	0	0	0	28	24	627	312	1	35	
13	0	0	0	0	31	28	1020	312	1	35	
14	0	0	0	0	27	24	1020	312	1	35	
15	0	0	0	0	28	24	1020	312	1	35	
0	0	0	0	0	28	24	1020	312	1	35	
1	0	0	0	0	28	24	1020	312	1	35	
2	0	0	0	0	28	24	1020	312	1	35	
3	0	0	0	0	31	28	1020	312	1	35	
4	0	0	0	0	28	24	1020	312	1	35	
5	0	0	0	0	28	24	1020	312	1	35	
6	0	0	0	0	31	28	1020	312	1	35	
7	0	0	0	0	28	22	1022	312	1	35	
8	0	0	0	0	24	24	1020	312	1	35	
9	0	0	0	0	28	24	1020	312	1	35	
10	0	0	0	0	28	24	950	312	1	35	
11	0	0	0	0	28	24	334	312	1	35	
12	0	0	0	0	31	28	0	312	1	35	
13	0	0	0	0	31	28	0	312	1	35	
14	0	0	0	0	28	24	0	312	1	35	
15	0	0	0	0	28	24	48	312	1	35	
0	0	0	0	0	28	24	600	312	1	35	
1	0	0	0	0	28	24	1020	312	1	35	
2	0	0	0	0	28	24	1020	312	1	35	
3	0	0	0	0	28	28	1020	312	1	35	
4	0	0	0	0	28	24	1020	312	1	35	
5	0	0	0	0	31	28	1020	312	1	35	
6	0	0	0	0	31	28	1020	312	1	35	
7	0	0	0	0	28	24	1020	312	1	35	
8	0	0	0	0	31	28	1020	312	1	35	
9	0	0	0	0	28	24	1020	312	1	35	
10	0	0	0	0	28	24	1020	312	1	35	
11	0	0	0	0	28	24	1020	312	1	35	
12	0	0	0	0	28	24	1020	312	1	35	
13	0	0	0	0	28	24	1020	312	1	35	
14	0	0	0	0	25	24	967	312	1	35	
15	0	0	0	0	31	28	374	312	1	35	
0	0	0	0	0	28	24	1	312	1	35	
1	0	0	0	0	24	24	0	312	1	35	
2	0	0	0	0	31	28	0	312	1	35	
3	0	0	0	0	35	31	159	312	1	35	
4	0	0	0	0	28	24	775	312	1	35	
5	0	0	0	0	28	24	1020	312	1	35	
6	0	0	0	0	28	24	1020	312	1	35	
7	0	0	0	0	28	24	1020	312	1	35	
8	0	0	0	0	28	24	1020	312	1	35	
9	0	0	0	0	31	28	1020	312	1	35	
10	0	0	0	0	31	28	1020	312	1	35	
11	0	0	0	0	31	28	1020	312	1	35	
12	0	0	0	0	28	24	1020	312	1	35	
13	0	0	0	0	28	24	1020	312	1	35	
14	0	0	0	0	31	28	1020	312	1	35	
15	0	0	0	0	35	31	1020	312	1	35	
0	0	0	0	0	28	24	1020	312	1	35	
1	0	0	0	0	28	24	1020	312	1	35	
2	0	0	0	0	28	24	1020	312	1	35	
3	0	0	0	0	28	24	467	312	1	35	
4	0	0	0	0	28	24	1	312	1	35	
5	0	0	0	0	24	24	0	312	1	35	
6	0	0	0	0	28	24	0	312	1	35	
7	0	0	0	0	35	31	159	312	1	35	
8	0	0	0	0	31	28	771	312	1	35	
9	0	0	0	0	28	24	1020	312	1	35	
10	0	0	0	0	28	24	1020	312	1	35	
11	0	0	0	0	35	31	1020	312	1	35	
12	0	0	0	0	31	28	1020	312	1	35	
13	0	0	0	0	28	24	1020	312	1	35	
14	0	0	0	0	35	31	1020	312	1	35	
15	0	0	0	0	28	24	1020	312	1	35	
0	0	0	0	0	28	24	1020	312	1	35	
1	0	0	0	0	24	24	1020	312	1	35	
2	0	0	0	0	31	28	1020	312	1	35	
3	0	0	0	0	28	24	1020	312	1	35	
4	0	0	0	0	28	24	1020	312	1	35	
5	0	0	0	0	28	24	1020	312	1	35	
6	0	0	0	0	28	24	1014	312	1	35	
7	0	0	0	0	24	24	441	312	1	35	
8	0	0	0	0	28	24	1	312	1	35	
9	0	0	0	0	28	24	0	312	1	35	
10	0	0	0	0	28	24	0	312	1	35	
11	0	0	0	0	31	28	163	312	1	35	
12	0	0	0	0	28	24	774	312	1	35	
13	0	0	0	0	31	28	1020	312	1	35	
14	0	0	0	0	28	24	1020	312	1	35	
15	0	0	0	0	28	24	1020	312	1	35	
0	0	0	0	0	24	24	1020	312	1	35	
1	0	0	0	0	28	24	1020	312	1	35	
2	0	0	0	0	35	31	1020	312	1	35	
3	0	0	0	0	24	24	1020	312	1	35	
4	0	0	0	0	28	24	1020	312	1	35	
5	0	0	0	0	31	28	1020	312	1	35	
6	0	0	0	0	31	28	1020	312	1	35	
7	0	0	0	0	28	24	1020	312	1	35	
8	0	0	0	0	31	28	1020	312	1	35	
9	0	0	0	0	28	24	1020	312	1	35	
10	0	0	0	0	28	24	952	312	1	35	
11	0	0	0	0	24	24	344	312	1	35	
12	0	0	0	0	28	24	0	312	1	35	
13	0	0	0	0	24	24	0	312	1	35	
14	0	0	0	0	25	24	0	312	1	35	
15	0	0	0	0	24	24	79	312	1	35	
0	0	0	0	0	28	24	647	312	1	35	
1	0	0	0	0	24	24	1020	312	1	35	
2	0	0	0	0	28	24	1020	312	1	35	
3	0	0	0	0	24	24	1020	312	1	35	
4	0	0	0	0	28	24	1020	312	1	35	
5	0	0	0	0	28	24	1020	312	1	35	
6	0	0	0	0	35	31	1020	312	1	35	
