# OpenSignals Text File Format. Version 1
# {"98:D3:31:B2:BC:63": {"sensor": ["RAW", "RAW", "RAW", "RAW", "RAW", "RAW"], "device name": "98:D3:31:B2:BC:63", "column": ["nSeq", "I1", "I2", "I3", "I4", "A1", "A2", "A3", "A4", "A5", "A6"], "sync interval": 2, "time": "13:35:40.186", "comments": "", "device connection": "/dev/tty.bitalino-DevB", "channels": [1, 2, 3, 4, 5, 6], "keywords": "", "convertedValues": 0, "mode": 0, "digital IO": [0, 0, 0, 0, 1, 1, 1, 1], "firmware version": 771, "device": "bitalino", "position": 0, "sampling rate": 1000, "label": ["A1", "A2", "A3", "A4", "A5", "A6"], "resolution": [4, 1, 1, 1, 1, 10, 10, 10, 10, 6, 6], "date": "2020-2-14", "special": [{}, {}, {}, {}, {}, {}]}}
# EndOfHeader
1	0	0	0	0	39	111	543	355	22	35	
2	0	0	0	0	35	110	540	355	22	35	
3	0	0	0	0	39	110	536	355	22	35	
4	0	0	0	0	35	110	531	355	22	35	
5	0	0	0	0	39	110	527	355	22	35	
6	0	0	0	0	44	111	527	353	22	35	
7	0	0	0	0	44	111	524	353	22	35	
8	0	0	0	0	39	108	519	353	22	35	
9	0	0	0	0	39	108	519	353	22	35	
10	0	0	0	0	44	110	515	353	22	35	
11	0	0	0	0	35	108	513	353	22	35	
12	0	0	0	0	39	108	511	353	22	35	
13	0	0	0	0	35	108	510	353	22	35	
14	0	0	0	0	35	108	508	352	22	35	
15	0	0	0	0	35	105	505	352	22	35	
0	0	0	0	0	39	105	504	352	22	35	
1	0	0	0	0	48	110	502	352	22	35	
2	0	0	0	0	35	103	499	352	22	35	
3	0	0	0	0	44	108	497	352	22	35	
4	0	0	0	0	39	103	496	352	22	35	
5	0	0	0	0	39	103	494	352	22	35	
6	0	0	0	0	39	103	492	352	22	35	
7	0	0	0	0	44	108	487	352	22	35	
8	0	0	0	0	35	103	487	352	22	35	
9	0	0	0	0	38	103	483	352	22	35	
10	0	0	0	0	35	103	481	352	22	35	
11	0	0	0	0	35	103	480	352	22	35	
12	0	0	0	0	48	108	480	352	22	35	
13	0	0	0	0	39	103	480	352	22	35	
14	0	0	0	0	39	103	478	352	22	35	
15	0	0	0	0	39	103	476	352	22	35	
0	0	0	0	0	44	103	476	352	22	35	
1	0	0	0	0	39	103	473	352	22	35	
2	0	0	0	0	39	103	472	352	22	35	
3	0	0	0	0	31	103	472	352	22	35	
4	0	0	0	0	39	103	472	352	22	35	
5	0	0	0	0	35	103	472	352	22	35	
6	0	0	0	0	44	103	472	352	22	35	
7	0	0	0	0	39	103	470	352	22	35	
8	0	0	0	0	39	103	467	352	22	35	
9	0	0	0	0	39	103	467	352	22	35	
10	0	0	0	0	44	103	465	352	22	35	
11	0	0	0	0	35	103	463	352	22	35	
12	0	0	0	0	44	103	463	352	22	35	
13	0	0	0	0	39	103	463	350	22	35	
14	0	0	0	0	39	103	463	350	22	35	
15	0	0	0	0	39	103	462	350	22	35	
0	0	0	0	0	44	103	462	350	22	35	
1	0	0	0	0	48	103	462	350	22	35	
2	0	0	0	0	44	103	462	350	22	35	
3	0	0	0	0	35	102	462	350	22	35	
4	0	0	0	0	39	103	462	350	22	35	
5	0	0	0	0	39	102	462	350	22	35	
6	0	0	0	0	44	103	462	350	22	35	
7	0	0	0	0	44	103	462	350	22	35	
8	0	0	0	0	39	102	463	350	22	35	
9	0	0	0	0	48	103	463	352	22	35	
10	0	0	0	0	39	102	463	350	22	35	
11	0	0	0	0	35	102	462	350	22	35	
12	0	0	0	0	39	102	462	352	22	35	
13	0	0	0	0	39	102	462	352	22	35	
14	0	0	0	0	44	103	460	350	22	35	
15	0	0	0	0	39	102	460	350	22	35	
0	0	0	0	0	39	102	460	350	22	35	
1	0	0	0	0	44	103	460	350	22	35	
2	0	0	0	0	39	102	460	350	22	35	
3	0	0	0	0	39	102	460	350	22	35	
4	0	0	0	0	39	102	460	352	22	35	
5	0	0	0	0	39	102	460	352	22	35	
6	0	0	0	0	35	102	460	352	22	35	
7	0	0	0	0	39	102	460	352	22	35	
8	0	0	0	0	39	103	460	352	22	35	
9	0	0	0	0	39	103	462	352	22	35	
10	0	0	0	0	44	103	462	352	22	35	
11	0	0	0	0	39	103	463	352	22	35	
12	0	0	0	0	39	103	463	352	22	35	
13	0	0	0	0	39	103	463	352	22	35	
14	0	0	0	0	35	103	463	352	22	35	
15	0	0	0	0	39	103	463	352	22	35	
0	0	0	0	0	48	105	463	352	22	35	
1	0	0	0	0	44	103	463	352	22	35	
2	0	0	0	0	44	103	463	352	22	35	
3	0	0	0	0	44	103	462	352	22	35	
4	0	0	0	0	39	103	462	352	22	35	
5	0	0	0	0	39	103	460	352	22	35	
6	0	0	0	0	39	103	460	352	22	35	
7	0	0	0	0	39	103	460	352	22	35	
8	0	0	0	0	35	103	460	352	22	35	
9	0	0	0	0	39	103	460	352	22	35	
10	0	0	0	0	35	103	460	352	22	35	
11	0	0	0	0	48	108	460	352	22	35	
12	0	0	0	0	48	108	462	352	22	35	
13	0	0	0	0	39	103	462	352	22	35	
14	0	0	0	0	44	103	463	352	22	35	
15	0	0	0	0	39	103	463	352	22	35	
0	0	0	0	0	39	103	463	352	22	35	
1	0	0	0	0	44	103	463	352	22	35	
2	0	0	0	0	39	103	463	352	22	35	
3	0	0	0	0	33	103	463	352	22	35	
4	0	0	0	0	39	103	463	352	22	35	
5	0	0	0	0	39	103	463	352	22	35	
6	0	0	0	0	48	108	463	352	22	35	
7	0	0	0	0	39	103	463	352	22	35	
8	0	0	0	0	39	103	463	352	22	35	
9	0	0	0	0	48	108	463	352	22	35	
10	0	0	0	0	39	103	463	352	22	35	
11	0	0	0	0	44	103	463	352	22	35	
12	0	0	0	0	39	103	463	352	22	35	
13	0	0	0	0	44	103	463	352	22	35	
14	0	0	0	0	39	103	463	352	22	35	
15	0	0	0	0	44	103	463	352	22	35	
0	0	0	0	0	39	103	463	352	22	35	
1	0	0	0	0	39	103	465	352	22	35	
2	0	0	0	0	48	108	467	352	22	35	
3	0	0	0	0	39	103	467	352	22	35	
4	0	0	0	0	44	103	467	352	22	35	
5	0	0	0	0	39	103	470	352	22	35	
6	0	0	0	0	44	103	472	352	22	35	
7	0	0	0	0	44	103	472	352	22	35	
8	0	0	0	0	39	103	472	352	22	35	
9	0	0	0	0	39	103	472	352	22	35	
10	0	0	0	0	39	103	472	352	22	35	
11	0	0	0	0	35	103	470	352	22	35	
12	0	0	0	0	39	103	468	352	22	35	
13	0	0	0	0	35	103	467	352	22	35	
14	0	0	0	0	39	103	467	352	22	35	
15	0	0	0	0	39	103	467	352	22	35	
0	0	0	0	0	48	108	467	352	22	35	
1	0	0	0	0	39	103	467	352	22	35	
2	0	0	0	0	39	103	470	352	22	35	
3	0	0	0	0	44	103	470	352	22	35	
4	0	0	0	0	39	103	472	352	22	35	
5	0	0	0	0	44	103	472	352	22	35	
6	0	0	0	0	35	103	472	352	22	35	
7	0	0	0	0	44	103	472	352	22	35	
8	0	0	0	0	44	103	472	352	22	35	
9	0	0	0	0	48	108	473	352	22	35	
10	0	0	0	0	39	103	473	352	22	35	
11	0	0	0	0	39	103	473	352	22	35	
12	0	0	0	0	44	103	473	352	22	35	
13	0	0	0	0	39	103	473	352	22	35	
14	0	0	0	0	41	103	473	352	22	35	
15	0	0	0	0	39	103	473	352	22	35	
0	0	0	0	0	39	103	472	352	22	35	
1	0	0	0	0	44	103	472	352	22	35	
2	0	0	0	0	39	103	472	352	22	35	
3	0	0	0	0	39	103	472	352	22	35	
4	0	0	0	0	39	103	472	352	22	35	
5	0	0	0	0	44	103	472	352	22	35	
6	0	0	0	0	39	103	472	352	22	35	
7	0	0	0	0	44	105	473	352	22	35	
8	0	0	0	0	35	103	473	352	22	35	
9	0	0	0	0	39	103	476	352	22	35	
10	0	0	0	0	48	108	476	352	22	35	
11	0	0	0	0	48	108	476	352	22	35	
12	0	0	0	0	39	103	478	352	22	35	
13	0	0	0	0	39	103	480	352	22	35	
14	0	0	0	0	39	103	480	352	22	35	
15	0	0	0	0	39	103	480	353	22	35	
0	0	0	0	0	39	103	480	353	22	35	
1	0	0	0	0	48	110	480	353	22	35	
2	0	0	0	0	39	103	480	353	22	35	
3	0	0	0	0	39	108	480	353	22	35	
4	0	0	0	0	39	103	480	353	22	35	
5	0	0	0	0	44	108	478	352	22	35	
6	0	0	0	0	35	103	478	353	22	35	
7	0	0	0	0	44	108	476	353	22	35	
8	0	0	0	0	35	103	476	353	22	35	
9	0	0	0	0	39	103	476	353	22	35	
10	0	0	0	0	39	103	476	353	22	35	
11	0	0	0	0	39	103	478	353	22	35	
12	0	0	0	0	39	103	478	353	22	35	
13	0	0	0	0	39	103	480	353	22	35	
14	0	0	0	0	35	103	480	353	22	35	
15	0	0	0	0	44	108	480	353	22	35	
0	0	0	0	0	39	103	480	353	22	35	
1	0	0	0	0	48	110	480	353	22	35	
2	0	0	0	0	39	103	480	353	22	35	
3	0	0	0	0	39	103	480	353	22	35	
4	0	0	0	0	39	103	480	353	22	35	
5	0	0	0	0	48	110	480	353	22	35	
6	0	0	0	0	39	103	480	353	22	35	
7	0	0	0	0	39	103	480	353	22	35	
8	0	0	0	0	39	103	480	353	22	35	
9	0	0	0	0	39	103	480	353	22	35	
10	0	0	0	0	39	103	480	353	22	35	
11	0	0	0	0	35	103	480	353	22	35	
12	0	0	0	0	39	103	480	353	22	35	
13	0	0	0	0	39	103	480	353	22	35	
14	0	0	0	0	39	103	480	353	22	35	
15	0	0	0	0	39	103	480	353	22	35	
0	0	0	0	0	39	103	480	353	22	35	
1	0	0	0	0	39	103	480	353	22	35	
2	0	0	0	0	39	103	481	353	22	35	
3	0	0	0	0	39	110	481	353	22	35	
4	0	0	0	0	39	103	481	353	22	35	
5	0	0	0	0	39	103	481	353	22	35	
6	0	0	0	0	48	110	483	353	22	35	
7	0	0	0	0	39	103	483	355	22	35	
8	0	0	0	0	44	108	483	355	22	35	
9	0	0	0	0	39	103	481	355	22	35	
10	0	0	0	0	39	103	481	355	22	35	
11	0	0	0	0	39	103	481	355	22	35	
12	0	0	0	0	35	105	480	355	22	35	
13	0	0	0	0	39	103	480	355	22	35	
14	0	0	0	0	44	110	480	355	22	35	
15	0	0	0	0	39	105	480	355	22	35	
0	0	0	0	0	44	108	480	355	22	35	
1	0	0	0	0	35	105	480	355	22	35	
2	0	0	0	0	44	108	480	355	22	35	
3	0	0	0	0	44	108	480	355	22	35	
4	0	0	0	0	44	108	481	355	22	35	
5	0	0	0	0	39	105	481	355	22	35	
6	0	0	0	0	39	105	483	355	22	35	
7	0	0	0	0	39	108	483	355	22	35	
8	0	0	0	0	39	108	483	355	22	35	
9	0	0	0	0	39	108	483	355	22	35	
10	0	0	0	0	35	108	483	355	22	35	
11	0	0	0	0	39	108	483	355	22	35	
12	0	0	0	0	39	108	483	355	22	35	
13	0	0	0	0	39	108	483	355	22	35	
14	0	0	0	0	39	108	483	355	22	35	
15	0	0	0	0	39	108	483	355	22	35	
0	0	0	0	0	44	108	481	355	22	35	
1	0	0	0	0	44	108	481	355	22	35	
2	0	0	0	0	39	108	481	355	22	35	
3	0	0	0	0	39	108	481	355	22	35	
4	0	0	0	0	35	108	480	355	22	35	
5	0	0	0	0	39	108	480	355	22	35	
6	0	0	0	0	35	108	481	355	22	35	
7	0	0	0	0	48	112	481	355	22	35	
8	0	0	0	0	44	108	481	355	22	35	
9	0	0	0	0	39	108	481	355	22	35	
10	0	0	0	0	44	108	483	355	22	35	
11	0	0	0	0	44	108	483	355	22	35	
12	0	0	0	0	35	108	483	355	22	35	
13	0	0	0	0	39	108	483	355	22	35	
14	0	0	0	0	33	108	483	355	22	35	
15	0	0	0	0	39	108	483	355	22	35	
0	0	0	0	0	48	112	483	355	22	35	
1	0	0	0	0	48	112	483	355	22	35	
2	0	0	0	0	39	108	483	355	22	35	
3	0	0	0	0	39	108	483	355	22	35	
4	0	0	0	0	44	108	481	355	22	35	
5	0	0	0	0	39	108	481	355	22	35	
6	0	0	0	0	44	108	481	355	22	35	
7	0	0	0	0	35	108	480	355	22	35	
8	0	0	0	0	39	108	480	355	22	35	
9	0	0	0	0	35	108	480	353	22	35	
10	0	0	0	0	39	108	480	355	22	35	
11	0	0	0	0	39	108	481	355	22	35	
12	0	0	0	0	39	108	481	355	22	35	
13	0	0	0	0	44	108	481	355	22	35	
14	0	0	0	0	39	108	483	355	22	35	
15	0	0	0	0	39	108	483	355	22	35	
0	0	0	0	0	39	108	483	355	22	35	
1	0	0	0	0	44	108	483	355	22	35	
2	0	0	0	0	35	108	483	355	22	35	
3	0	0	0	0	35	108	483	355	22	35	
4	0	0	0	0	48	112	483	355	22	35	
5	0	0	0	0	39	108	483	355	22	35	
6	0	0	0	0	35	108	483	355	22	35	
7	0	0	0	0	39	108	481	355	22	35	
8	0	0	0	0	39	108	481	353	22	35	
9	0	0	0	0	39	108	480	353	22	35	
10	0	0	0	0	39	108	480	353	22	35	
11	0	0	0	0	39	108	480	353	22	35	
12	0	0	0	0	39	108	480	353	22	35	
13	0	0	0	0	48	111	480	353	22	35	
14	0	0	0	0	38	108	480	353	22	35	
15	0	0	0	0	39	108	481	353	22	35	
0	0	0	0	0	39	108	481	353	22	35	
1	0	0	0	0	48	112	483	353	22	35	
2	0	0	0	0	39	108	483	353	22	35	
3	0	0	0	0	39	108	483	353	22	35	
4	0	0	0	0	39	108	483	353	22	35	
5	0	0	0	0	39	108	486	353	22	35	
6	0	0	0	0	39	108	486	353	22	35	
7	0	0	0	0	39	108	486	353	22	35	
8	0	0	0	0	35	108	486	353	22	35	
9	0	0	0	0	39	108	483	353	22	35	
10	0	0	0	0	44	108	483	353	22	35	
11	0	0	0	0	48	111	483	353	22	35	
12	0	0	0	0	39	105	483	353	22	35	
13	0	0	0	0	39	105	483	353	22	35	
14	0	0	0	0	44	108	481	353	22	35	
15	0	0	0	0	39	105	481	353	22	35	
0	0	0	0	0	39	105	481	353	22	35	
1	0	0	0	0	44	108	481	353	22	35	
2	0	0	0	0	39	105	481	353	22	35	
3	0	0	0	0	31	108	481	353	22	35	
4	0	0	0	0	39	105	481	353	22	35	
5	0	0	0	0	39	105	483	353	22	35	
6	0	0	0	0	35	105	483	353	22	35	
7	0	0	0	0	48	111	483	353	22	35	
8	0	0	0	0	39	105	483	353	22	35	
9	0	0	0	0	39	105	483	353	22	35	
10	0	0	0	0	39	105	486	353	22	35	
11	0	0	0	0	39	103	486	353	22	35	
12	0	0	0	0	44	108	486	353	22	35	
13	0	0	0	0	39	105	483	355	22	35	
14	0	0	0	0	35	105	483	355	22	35	
15	0	0	0	0	44	108	483	353	22	35	
0	0	0	0	0	39	105	483	355	22	35	
1	0	0	0	0	35	105	483	353	22	35	
2	0	0	0	0	44	108	483	353	22	35	
3	0	0	0	0	39	105	483	353	22	35	
4	0	0	0	0	39	105	483	353	22	35	
5	0	0	0	0	39	105	483	353	22	35	
6	0	0	0	0	35	105	483	353	22	35	
7	0	0	0	0	44	108	483	353	22	35	
8	0	0	0	0	44	108	483	353	22	35	
9	0	0	0	0	39	105	483	353	22	35	
10	0	0	0	0	44	108	486	353	22	35	
11	0	0	0	0	39	105	486	353	22	35	
12	0	0	0	0	39	105	487	353	22	35	
13	0	0	0	0	39	105	487	353	22	35	
14	0	0	0	0	39	105	487	353	22	35	
15	0	0	0	0	39	105	487	353	22	35	
0	0	0	0	0	39	105	487	353	22	35	
1	0	0	0	0	35	105	487	353	22	35	
2	0	0	0	0	35	105	487	353	22	35	
3	0	0	0	0	35	105	486	353	22	35	
4	0	0	0	0	39	105	486	353	22	35	
5	0	0	0	0	39	105	486	353	22	35	
6	0	0	0	0	39	105	486	353	22	35	
7	0	0	0	0	39	105	486	353	22	35	
8	0	0	0	0	39	105	486	353	22	35	
9	0	0	0	0	39	105	486	353	22	35	
10	0	0	0	0	39	105	486	353	22	35	
11	0	0	0	0	39	105	486	353	22	35	
12	0	0	0	0	39	105	487	353	22	35	
13	0	0	0	0	39	105	487	353	22	35	
14	0	0	0	0	38	105	487	353	22	35	
15	0	0	0	0	39	105	487	353	22	35	
0	0	0	0	0	44	108	487	353	22	35	
1	0	0	0	0	48	111	487	353	22	35	
2	0	0	0	0	44	108	487	353	22	35	
3	0	0	0	0	48	111	487	353	22	35	
4	0	0	0	0	39	107	487	353	22	35	
5	0	0	0	0	39	108	487	353	22	35	
6	0	0	0	0	39	108	487	353	22	35	
7	0	0	0	0	39	108	487	353	22	35	
8	0	0	0	0	39	108	487	353	22	35	
9	0	0	0	0	35	108	487	353	22	35	
10	0	0	0	0	39	107	487	355	22	35	
11	0	0	0	0	44	108	487	353	22	35	
12	0	0	0	0	39	105	487	353	22	35	
13	0	0	0	0	44	108	487	353	22	35	
14	0	0	0	0	39	105	487	353	22	35	
15	0	0	0	0	39	105	487	353	22	35	
0	0	0	0	0	44	108	487	353	22	35	
1	0	0	0	0	39	105	487	353	22	35	
2	0	0	0	0	39	105	487	353	22	35	
3	0	0	0	0	39	105	487	353	22	35	
4	0	0	0	0	48	111	487	353	22	35	
5	0	0	0	0	39	105	487	353	22	35	
6	0	0	0	0	48	111	487	353	22	35	
7	0	0	0	0	39	105	487	353	22	35	
8	0	0	0	0	44	108	487	353	22	35	
9	0	0	0	0	44	108	487	353	22	35	
10	0	0	0	0	39	105	487	353	22	35	
11	0	0	0	0	39	105	487	353	22	35	
12	0	0	0	0	44	108	487	353	22	35	
13	0	0	0	0	39	105	487	353	22	35	
14	0	0	0	0	35	105	486	353	22	35	
15	0	0	0	0	44	108	486	353	22	35	
0	0	0	0	0	39	105	487	353	22	35	
1	0	0	0	0	35	105	487	353	22	35	
2	0	0	0	0	39	105	487	353	22	35	
3	0	0	0	0	44	108	487	353	22	35	
4	0	0	0	0	44	108	487	353	22	35	
5	0	0	0	0	39	108	487	353	22	35	
6	0	0	0	0	39	108	489	353	22	35	
7	0	0	0	0	44	108	492	353	22	35	
8	0	0	0	0	44	108	492	353	22	35	
9	0	0	0	0	39	108	492	353	22	35	
10	0	0	0	0	44	108	492	353	22	35	
11	0	0	0	0	35	108	492	353	22	35	
12	0	0	0	0	44	108	492	353	22	35	
13	0	0	0	0	44	108	491	353	22	35	
14	0	0	0	0	39	108	489	353	22	35	
15	0	0	0	0	44	108	487	353	22	35	
0	0	0	0	0	44	108	487	353	22	35	
1	0	0	0	0	44	108	487	353	22	35	
2	0	0	0	0	49	112	487	353	22	35	
3	0	0	0	0	35	108	487	355	22	35	
4	0	0	0	0	39	108	487	355	22	35	
5	0	0	0	0	39	108	487	355	22	35	
6	0	0	0	0	49	112	487	355	22	35	
7	0	0	0	0	39	108	487	353	22	35	
8	0	0	0	0	49	112	487	355	22	35	
9	0	0	0	0	39	108	489	355	22	35	
10	0	0	0	0	39	108	492	355	22	35	
11	0	0	0	0	39	108	492	355	22	35	
12	0	0	0	0	44	110	492	355	22	35	
13	0	0	0	0	39	108	492	355	22	35	
14	0	0	0	0	41	110	492	355	22	35	
15	0	0	0	0	39	105	492	355	22	35	
0	0	0	0	0	38	111	492	355	22	35	
1	0	0	0	0	35	108	492	355	22	35	
2	0	0	0	0	44	110	492	355	22	35	
3	0	0	0	0	44	110	492	355	22	35	
4	0	0	0	0	39	108	489	355	22	35	
5	0	0	0	0	39	108	489	355	22	35	
6	0	0	0	0	44	110	489	355	22	35	
7	0	0	0	0	35	108	489	355	22	35	
8	0	0	0	0	39	108	492	355	22	35	
9	0	0	0	0	35	108	492	355	22	35	
10	0	0	0	0	44	110	492	355	22	35	
11	0	0	0	0	39	108	494	355	22	35	
12	0	0	0	0	44	110	496	355	22	35	
13	0	0	0	0	39	108	496	355	22	35	
14	0	0	0	0	39	108	496	355	22	35	
15	0	0	0	0	44	110	496	355	22	35	
0	0	0	0	0	39	108	497	355	22	35	
1	0	0	0	0	39	108	497	355	22	35	
2	0	0	0	0	39	108	496	355	22	35	
3	0	0	0	0	44	110	496	353	22	35	
4	0	0	0	0	49	112	496	353	22	35	
5	0	0	0	0	44	110	496	353	22	35	
6	0	0	0	0	39	108	496	353	22	35	
7	0	0	0	0	44	108	494	353	22	35	
8	0	0	0	0	39	108	494	353	22	35	
9	0	0	0	0	39	108	492	353	22	35	
10	0	0	0	0	39	108	492	353	22	35	
11	0	0	0	0	44	108	492	353	22	35	
12	0	0	0	0	35	108	492	353	22	35	
13	0	0	0	0	39	108	494	353	22	35	
14	0	0	0	0	35	108	494	353	22	35	
15	0	0	0	0	44	108	496	353	22	35	
0	0	0	0	0	35	108	496	353	22	35	
1	0	0	0	0	35	108	497	353	22	35	
2	0	0	0	0	39	108	499	353	22	35	
3	0	0	0	0	39	108	499	353	22	35	
4	0	0	0	0	39	108	504	353	22	35	
5	0	0	0	0	39	108	504	355	22	35	
6	0	0	0	0	39	108	504	353	22	35	
7	0	0	0	0	39	108	504	353	22	35	
8	0	0	0	0	35	108	504	353	22	35	
9	0	0	0	0	35	108	505	353	22	35	
10	0	0	0	0	35	108	505	353	22	35	
11	0	0	0	0	49	112	505	353	22	35	
12	0	0	0	0	39	108	508	353	22	35	
13	0	0	0	0	39	108	508	353	22	35	
14	0	0	0	0	39	108	508	353	22	35	
15	0	0	0	0	39	108	508	353	22	35	
0	0	0	0	0	39	108	508	355	22	35	
1	0	0	0	0	39	108	510	355	22	35	
2	0	0	0	0	39	108	511	355	22	35	
3	0	0	0	0	31	111	511	355	22	35	
4	0	0	0	0	39	108	512	355	22	35	
5	0	0	0	0	49	112	513	355	22	35	
6	0	0	0	0	35	108	515	355	22	35	
7	0	0	0	0	49	112	515	355	22	35	
8	0	0	0	0	39	110	518	355	22	35	
9	0	0	0	0	39	110	518	355	22	35	
10	0	0	0	0	39	110	518	355	22	35	
11	0	0	0	0	44	112	518	355	22	35	
12	0	0	0	0	39	110	518	355	22	35	
13	0	0	0	0	44	112	515	355	22	35	
14	0	0	0	0	41	111	515	355	22	35	
15	0	0	0	0	39	108	513	355	22	35	
0	0	0	0	0	49	112	512	355	22	35	
1	0	0	0	0	49	112	511	355	22	35	
2	0	0	0	0	39	108	510	355	22	35	
3	0	0	0	0	39	108	508	355	22	35	
4	0	0	0	0	44	110	508	355	22	35	
5	0	0	0	0	39	108	505	355	22	35	
6	0	0	0	0	44	110	504	355	22	35	
7	0	0	0	0	39	108	504	355	22	35	
8	0	0	0	0	39	108	504	355	22	35	
9	0	0	0	0	35	108	504	355	22	35	
10	0	0	0	0	39	108	504	353	22	35	
11	0	0	0	0	49	112	504	353	22	35	
12	0	0	0	0	44	110	502	353	22	35	
13	0	0	0	0	39	108	499	353	22	35	
14	0	0	0	0	39	108	499	353	22	35	
15	0	0	0	0	44	108	497	353	22	35	
0	0	0	0	0	39	108	496	353	22	35	
1	0	0	0	0	44	108	496	353	22	35	
2	0	0	0	0	39	105	492	353	22	35	
3	0	0	0	0	35	110	492	353	22	35	
4	0	0	0	0	39	105	487	353	22	35	
5	0	0	0	0	44	108	487	353	22	35	
6	0	0	0	0	48	110	487	353	22	35	
7	0	0	0	0	49	110	486	352	22	35	
8	0	0	0	0	44	108	483	353	22	35	
9	0	0	0	0	44	108	483	353	22	35	
10	0	0	0	0	39	105	483	353	22	35	
11	0	0	0	0	44	108	483	353	22	35	
12	0	0	0	0	39	105	483	353	22	35	
13	0	0	0	0	39	105	483	353	22	35	
14	0	0	0	0	48	111	486	353	22	35	
15	0	0	0	0	44	108	486	353	22	35	
0	0	0	0	0	39	108	487	353	22	35	
1	0	0	0	0	49	112	487	353	22	35	
2	0	0	0	0	39	108	487	353	22	35	
3	0	0	0	0	44	108	487	353	22	35	
4	0	0	0	0	39	108	487	353	22	35	
5	0	0	0	0	39	108	487	355	22	35	
6	0	0	0	0	39	108	487	355	22	35	
7	0	0	0	0	44	108	487	355	22	35	
8	0	0	0	0	39	108	487	355	22	35	
9	0	0	0	0	39	108	487	355	22	35	
10	0	0	0	0	49	112	487	355	22	35	
11	0	0	0	0	49	112	487	355	22	35	
12	0	0	0	0	39	108	486	355	22	35	
13	0	0	0	0	49	112	486	355	22	35	
14	0	0	0	0	39	108	486	353	22	35	
15	0	0	0	0	35	108	486	353	22	35	
0	0	0	0	0	44	108	487	353	22	35	
1	0	0	0	0	39	108	487	353	22	35	
2	0	0	0	0	39	108	487	355	22	35	
3	0	0	0	0	39	108	487	353	22	35	
4	0	0	0	0	44	108	487	353	22	35	
5	0	0	0	0	44	108	487	353	22	35	
6	0	0	0	0	39	108	487	353	22	35	
7	0	0	0	0	39	108	487	355	22	35	
8	0	0	0	0	39	108	489	355	22	35	
9	0	0	0	0	35	108	489	355	22	35	
10	0	0	0	0	39	108	492	355	22	35	
11	0	0	0	0	39	108	492	355	22	35	
12	0	0	0	0	39	108	489	355	22	35	
13	0	0	0	0	44	110	489	355	22	35	
14	0	0	0	0	48	112	489	355	22	35	
15	0	0	0	0	39	108	489	355	22	35	
0	0	0	0	0	39	108	489	355	22	35	
1	0	0	0	0	49	112	489	355	22	35	
2	0	0	0	0	44	110	492	355	22	35	
3	0	0	0	0	39	108	492	355	22	35	
4	0	0	0	0	39	108	492	355	22	35	
5	0	0	0	0	39	108	492	355	22	35	
6	0	0	0	0	39	108	492	355	22	35	
7	0	0	0	0	35	108	492	355	22	35	
8	0	0	0	0	44	110	492	355	22	35	
9	0	0	0	0	48	112	492	355	22	35	
10	0	0	0	0	39	108	492	355	22	35	
11	0	0	0	0	35	108	492	355	22	35	
12	0	0	0	0	39	108	492	355	22	35	
13	0	0	0	0	44	110	492	355	22	35	
14	0	0	0	0	39	108	487	355	22	35	
15	0	0	0	0	39	108	487	355	22	35	
0	0	0	0	0	39	108	487	355	22	35	
1	0	0	0	0	39	105	483	355	22	35	
2	0	0	0	0	49	111	483	355	22	35	
3	0	0	0	0	35	105	480	353	22	35	
4	0	0	0	0	39	103	480	353	22	35	
5	0	0	0	0	49	110	476	353	22	35	
6	0	0	0	0	35	103	472	353	22	35	
7	0	0	0	0	44	105	470	352	22	35	
8	0	0	0	0	39	103	465	352	22	35	
9	0	0	0	0	39	103	463	352	22	35	
10	0	0	0	0	39	103	460	352	22	35	
11	0	0	0	0	39	103	457	352	22	35	
12	0	0	0	0	39	103	455	352	22	35	
13	0	0	0	0	44	103	455	352	22	35	
14	0	0	0	0	48	105	455	352	22	35	
15	0	0	0	0	39	103	455	352	22	35	
0	0	0	0	0	39	103	460	352	22	35	
1	0	0	0	0	39	103	463	352	22	35	
2	0	0	0	0	39	103	472	352	22	35	
3	0	0	0	0	39	103	478	352	22	35	
4	0	0	0	0	35	108	487	353	22	35	
5	0	0	0	0	39	108	499	355	22	35	
6	0	0	0	0	35	110	512	356	22	35	
7	0	0	0	0	39	112	527	359	22	35	
8	0	0	0	0	36	113	547	359	22	35	
9	0	0	0	0	39	115	568	364	22	35	
10	0	0	0	0	51	124	591	366	23	35	
11	0	0	0	0	51	126	615	368	23	35	
12	0	0	0	0	41	126	646	369	23	35	
13	0	0	0	0	54	131	671	374	23	35	
14	0	0	0	0	44	132	704	376	23	35	
15	0	0	0	0	39	135	736	384	24	35	
0	0	0	0	0	46	140	768	384	24	35	
1	0	0	0	0	39	143	796	387	24	35	
2	0	0	0	0	47	148	824	391	24	35	
3	0	0	0	0	39	156	847	396	24	35	
4	0	0	0	0	48	156	871	399	24	35	
5	0	0	0	0	60	163	896	401	25	35	
6	0	0	0	0	44	161	911	406	25	35	
7	0	0	0	0	49	163	927	408	25	35	
8	0	0	0	0	49	167	935	408	25	35	
9	0	0	0	0	49	167	944	412	25	35	
10	0	0	0	0	49	167	944	412	25	35	
11	0	0	0	0	56	167	942	412	25	35	
12	0	0	0	0	49	167	935	412	25	35	
13	0	0	0	0	56	167	924	408	25	35	
14	0	0	0	0	47	163	908	408	25	35	
15	0	0	0	0	54	159	888	403	25	35	
0	0	0	0	0	44	156	864	399	24	35	
1	0	0	0	0	44	152	838	396	24	35	
2	0	0	0	0	51	148	807	391	24	35	
3	0	0	0	0	51	143	775	387	24	35	
4	0	0	0	0	44	135	739	384	24	35	
5	0	0	0	0	44	131	704	376	24	35	
6	0	0	0	0	48	127	670	371	23	35	
7	0	0	0	0	41	120	633	368	23	35	
8	0	0	0	0	46	120	600	359	23	35	
9	0	0	0	0	39	112	568	358	22	35	
10	0	0	0	0	39	110	537	352	22	35	
11	0	0	0	0	48	111	511	352	22	35	
12	0	0	0	0	39	103	487	348	22	35	
13	0	0	0	0	35	102	472	344	22	35	
14	0	0	0	0	41	102	455	344	22	35	
15	0	0	0	0	38	99	448	342	22	35	
0	0	0	0	0	38	97	440	339	22	35	
1	0	0	0	0	48	102	440	339	21	35	
2	0	0	0	0	41	99	440	339	21	35	
3	0	0	0	0	31	99	444	339	22	35	
4	0	0	0	0	48	103	448	342	22	35	
5	0	0	0	0	39	100	455	344	22	35	
6	0	0	0	0	35	103	462	344	22	35	
7	0	0	0	0	39	103	470	344	22	35	
8	0	0	0	0	39	103	476	345	22	35	
9	0	0	0	0	39	103	480	348	22	35	
10	0	0	0	0	39	103	486	348	22	35	
11	0	0	0	0	39	103	487	348	22	35	
12	0	0	0	0	39	105	492	350	22	35	
13	0	0	0	0	39	105	492	350	22	35	
14	0	0	0	0	41	108	489	352	22	35	
15	0	0	0	0	48	110	487	352	22	35	
0	0	0	0	0	39	103	487	352	22	35	
1	0	0	0	0	48	110	483	350	22	35	
2	0	0	0	0	44	108	481	350	22	35	
3	0	0	0	0	39	103	480	350	22	35	
4	0	0	0	0	39	103	480	350	22	35	
5	0	0	0	0	39	103	480	350	22	35	
6	0	0	0	0	39	103	480	350	22	35	
7	0	0	0	0	48	108	480	350	22	35	
8	0	0	0	0	39	103	480	350	22	35	
9	0	0	0	0	39	103	481	352	22	35	
10	0	0	0	0	48	108	483	352	22	35	
11	0	0	0	0	35	103	486	352	22	35	
12	0	0	0	0	39	103	487	352	22	35	
13	0	0	0	0	44	108	489	352	22	35	
14	0	0	0	0	39	103	492	352	22	35	
15	0	0	0	0	39	105	494	352	22	35	
0	0	0	0	0	44	108	496	352	22	35	
1	0	0	0	0	39	105	496	352	22	35	
2	0	0	0	0	39	105	496	352	22	35	
3	0	0	0	0	44	108	496	352	22	35	
4	0	0	0	0	44	108	496	352	22	35	
5	0	0	0	0	39	105	496	352	22	35	
6	0	0	0	0	35	105	494	352	22	35	
7	0	0	0	0	48	110	494	352	22	35	
8	0	0	0	0	48	110	492	352	22	35	
9	0	0	0	0	39	105	492	352	22	35	
10	0	0	0	0	35	105	492	352	22	35	
11	0	0	0	0	39	105	492	352	22	35	
12	0	0	0	0	39	105	492	352	22	35	
13	0	0	0	0	44	108	492	352	22	35	
14	0	0	0	0	39	108	492	352	22	35	
15	0	0	0	0	44	108	492	352	22	35	
0	0	0	0	0	48	111	494	352	22	35	
1	0	0	0	0	35	105	494	352	22	35	
2	0	0	0	0	39	105	496	352	22	35	
3	0	0	0	0	39	108	496	352	22	35	
4	0	0	0	0	49	112	496	352	22	35	
5	0	0	0	0	35	108	496	352	22	35	
6	0	0	0	0	39	108	496	352	22	35	
7	0	0	0	0	39	108	496	353	22	35	
8	0	0	0	0	44	108	496	353	22	35	
9	0	0	0	0	39	108	496	353	22	35	
10	0	0	0	0	44	108	496	353	22	35	
11	0	0	0	0	39	108	496	353	22	35	
12	0	0	0	0	39	108	496	353	22	35	
13	0	0	0	0	39	108	496	353	22	35	
14	0	0	0	0	39	108	496	353	22	35	
15	0	0	0	0	39	108	497	353	22	35	
0	0	0	0	0	39	108	499	353	22	35	
1	0	0	0	0	39	108	499	353	22	35	
2	0	0	0	0	35	108	499	353	22	35	
3	0	0	0	0	35	108	500	353	22	35	
4	0	0	0	0	44	110	504	352	22	35	
5	0	0	0	0	39	108	504	352	22	35	
6	0	0	0	0	39	108	504	353	22	35	
7	0	0	0	0	44	110	504	353	22	35	
8	0	0	0	0	39	108	504	353	22	35	
9	0	0	0	0	39	108	504	353	22	35	
10	0	0	0	0	35	108	504	353	22	35	
11	0	0	0	0	49	112	504	353	22	35	
12	0	0	0	0	39	108	504	353	22	35	
13	0	0	0	0	39	108	504	353	22	35	
14	0	0	0	0	41	110	504	353	22	35	
15	0	0	0	0	44	110	504	353	22	35	
0	0	0	0	0	39	108	504	353	22	35	
1	0	0	0	0	35	108	504	353	22	35	
2	0	0	0	0	44	111	504	353	22	35	
3	0	0	0	0	44	111	504	353	22	35	
4	0	0	0	0	39	108	505	353	22	35	
5	0	0	0	0	39	108	508	353	22	35	
6	0	0	0	0	49	112	508	353	22	35	
7	0	0	0	0	39	110	510	355	22	35	
8	0	0	0	0	44	112	511	355	22	35	
9	0	0	0	0	44	112	511	355	22	35	
10	0	0	0	0	44	112	512	355	22	35	
11	0	0	0	0	35	108	512	355	22	35	
12	0	0	0	0	44	112	513	355	22	35	
13	0	0	0	0	39	110	513	355	22	35	
14	0	0	0	0	39	110	513	355	22	35	
15	0	0	0	0	39	110	515	355	22	35	
0	0	0	0	0	39	110	515	355	22	35	
1	0	0	0	0	44	112	515	355	22	35	
2	0	0	0	0	39	110	515	355	22	35	
3	0	0	0	0	39	110	515	355	22	35	
4	0	0	0	0	39	110	515	355	22	35	
5	0	0	0	0	44	112	518	355	22	35	
6	0	0	0	0	49	113	519	355	22	35	
7	0	0	0	0	44	112	519	355	22	35	
8	0	0	0	0	39	111	519	355	22	35	
9	0	0	0	0	39	111	519	355	22	35	
10	0	0	0	0	39	111	524	355	22	35	
11	0	0	0	0	39	111	524	355	22	35	
12	0	0	0	0	39	111	524	355	22	35	
13	0	0	0	0	39	111	526	355	22	35	
14	0	0	0	0	39	111	527	355	22	35	
15	0	0	0	0	35	111	527	355	22	35	
0	0	0	0	0	39	111	527	355	22	35	
1	0	0	0	0	35	111	527	355	22	35	
2	0	0	0	0	39	112	527	355	22	35	
3	0	0	0	0	44	112	527	355	22	35	
4	0	0	0	0	39	112	527	355	22	35	
5	0	0	0	0	39	112	527	355	22	35	
6	0	0	0	0	39	112	527	355	22	35	
7	0	0	0	0	44	112	527	355	22	35	
8	0	0	0	0	39	112	527	355	22	35	
9	0	0	0	0	39	112	527	355	22	35	
10	0	0	0	0	35	112	529	355	22	35	
11	0	0	0	0	39	112	531	355	22	35	
12	0	0	0	0	35	112	534	355	22	35	
13	0	0	0	0	39	112	536	358	22	35	
14	0	0	0	0	46	112	536	358	22	35	
15	0	0	0	0	46	112	537	358	22	35	
0	0	0	0	0	39	112	540	358	22	35	
1	0	0	0	0	39	112	542	358	22	35	
2	0	0	0	0	46	112	543	358	22	35	
3	0	0	0	0	35	112	543	358	22	35	
4	0	0	0	0	49	115	543	358	22	35	
5	0	0	0	0	39	112	543	358	22	35	
6	0	0	0	0	35	112	543	358	22	35	
7	0	0	0	0	39	112	547	358	22	35	
8	0	0	0	0	39	112	547	358	22	35	
9	0	0	0	0	39	112	547	358	22	35	
10	0	0	0	0	39	112	547	358	22	35	
11	0	0	0	0	46	113	547	358	22	35	
12	0	0	0	0	39	112	550	358	22	35	
13	0	0	0	0	39	112	551	358	22	35	
14	0	0	0	0	39	112	551	358	22	35	
15	0	0	0	0	39	112	551	358	22	35	
0	0	0	0	0	35	112	556	358	22	35	
1	0	0	0	0	49	115	556	358	22	35	
2	0	0	0	0	50	115	560	358	22	35	
3	0	0	0	0	39	112	560	358	22	35	
4	0	0	0	0	39	112	561	358	22	35	
5	0	0	0	0	39	113	563	359	22	35	
6	0	0	0	0	46	115	566	359	22	35	
7	0	0	0	0	46	115	568	359	22	35	
8	0	0	0	0	39	113	568	359	22	35	
9	0	0	0	0	39	113	568	359	22	35	
10	0	0	0	0	46	115	569	359	22	35	
11	0	0	0	0	36	113	572	359	22	35	
12	0	0	0	0	39	113	572	359	22	35	
13	0	0	0	0	38	113	572	359	22	35	
14	0	0	0	0	51	120	574	359	22	35	
15	0	0	0	0	39	115	575	359	22	35	
0	0	0	0	0	39	115	575	359	22	35	
1	0	0	0	0	39	115	575	359	22	35	
2	0	0	0	0	39	115	575	359	22	35	
3	0	0	0	0	39	115	579	359	22	35	
4	0	0	0	0	46	118	582	359	22	35	
5	0	0	0	0	46	118	583	359	22	35	
6	0	0	0	0	46	118	583	359	22	35	
7	0	0	0	0	39	115	588	359	22	35	
8	0	0	0	0	39	115	588	359	22	35	
9	0	0	0	0	46	118	590	359	22	35	
10	0	0	0	0	46	120	591	359	22	35	
11	0	0	0	0	39	115	591	359	22	35	
12	0	0	0	0	39	115	591	359	22	35	
13	0	0	0	0	39	116	593	359	22	35	
14	0	0	0	0	44	120	595	359	22	35	
15	0	0	0	0	39	118	595	359	22	35	
0	0	0	0	0	39	118	595	359	22	35	
1	0	0	0	0	46	120	595	359	22	35	
2	0	0	0	0	39	118	595	359	23	35	
3	0	0	0	0	39	118	600	359	22	35	
4	0	0	0	0	46	120	600	359	23	35	
5	0	0	0	0	38	120	600	359	23	35	
6	0	0	0	0	46	120	600	359	23	35	
7	0	0	0	0	39	120	600	359	23	35	
8	0	0	0	0	47	120	601	361	23	35	
9	0	0	0	0	39	120	604	361	23	35	
10	0	0	0	0	39	120	604	364	23	35	
11	0	0	0	0	51	124	608	364	23	35	
12	0	0	0	0	47	120	608	364	23	35	
13	0	0	0	0	38	120	608	364	23	35	
14	0	0	0	0	39	120	608	364	23	35	
15	0	0	0	0	39	120	608	364	23	35	
0	0	0	0	0	38	120	608	364	23	35	
1	0	0	0	0	39	120	608	364	23	35	
2	0	0	0	0	38	120	608	364	23	35	
3	0	0	0	0	39	120	608	364	23	35	
4	0	0	0	0	39	120	608	364	23	35	
5	0	0	0	0	39	120	608	364	23	35	
6	0	0	0	0	39	120	608	364	23	35	
7	0	0	0	0	47	120	608	364	23	35	
8	0	0	0	0	47	120	604	364	23	35	
9	0	0	0	0	39	120	604	364	23	35	
10	0	0	0	0	47	120	604	364	23	35	
11	0	0	0	0	39	120	601	364	23	35	
12	0	0	0	0	39	120	600	364	23	35	
13	0	0	0	0	39	120	600	364	23	35	
14	0	0	0	0	44	120	600	364	23	35	
15	0	0	0	0	51	121	600	364	23	35	
0	0	0	0	0	47	120	598	364	23	35	
1	0	0	0	0	39	120	595	361	23	35	
2	0	0	0	0	47	120	591	361	22	35	
3	0	0	0	0	39	118	591	359	22	35	
4	0	0	0	0	39	118	590	359	22	35	
5	0	0	0	0	39	118	585	359	22	35	
6	0	0	0	0	39	115	583	359	22	35	
7	0	0	0	0	46	118	579	359	22	35	
8	0	0	0	0	51	120	575	359	22	35	
9	0	0	0	0	39	115	574	359	22	35	
10	0	0	0	0	39	115	569	359	22	35	
11	0	0	0	0	51	120	568	359	22	35	
12	0	0	0	0	39	113	563	359	22	35	
13	0	0	0	0	39	113	560	358	22	35	
14	0	0	0	0	39	113	558	358	22	35	
15	0	0	0	0	46	115	556	358	22	35	
0	0	0	0	0	39	112	551	358	22	35	
1	0	0	0	0	39	112	550	355	22	35	
2	0	0	0	0	39	112	547	355	22	35	
3	0	0	0	0	35	112	543	355	22	35	
4	0	0	0	0	39	112	542	355	22	35	
5	0	0	0	0	46	112	540	355	22	35	
6	0	0	0	0	35	112	536	355	22	35	
7	0	0	0	0	39	111	534	355	22	35	
8	0	0	0	0	39	110	529	355	22	35	
9	0	0	0	0	39	110	527	355	22	35	
10	0	0	0	0	39	110	524	355	22	35	
11	0	0	0	0	39	110	519	353	22	35	
12	0	0	0	0	39	108	516	353	22	35	
13	0	0	0	0	39	108	513	353	22	35	
14	0	0	0	0	39	108	511	353	22	35	
15	0	0	0	0	44	110	508	353	22	35	
0	0	0	0	0	39	108	504	353	22	35	
1	0	0	0	0	49	112	504	352	22	35	
2	0	0	0	0	39	108	499	352	22	35	
3	0	0	0	0	44	108	499	352	22	35	
4	0	0	0	0	39	108	496	352	22	35	
5	0	0	0	0	39	105	496	352	22	35	
6	0	0	0	0	39	105	496	352	22	35	
7	0	0	0	0	44	108	492	352	22	35	
8	0	0	0	0	39	105	492	352	22	35	
9	0	0	0	0	39	103	489	352	22	35	
10	0	0	0	0	44	108	487	352	22	35	
11	0	0	0	0	35	103	487	352	22	35	
12	0	0	0	0	39	103	486	352	22	35	
13	0	0	0	0	39	103	483	352	22	35	
14	0	0	0	0	44	105	481	352	22	35	
15	0	0	0	0	39	103	480	352	22	35	
0	0	0	0	0	39	103	478	352	22	35	
1	0	0	0	0	39	103	476	352	22	35	
2	0	0	0	0	39	103	473	352	22	35	
3	0	0	0	0	48	108	472	352	22	35	
4	0	0	0	0	39	103	472	352	22	35	
5	0	0	0	0	39	103	472	352	22	35	
6	0	0	0	0	48	108	467	352	22	35	
7	0	0	0	0	39	103	467	352	22	35	
8	0	0	0	0	39	103	467	352	22	35	
9	0	0	0	0	39	103	467	352	22	35	
10	0	0	0	0	39	103	465	352	22	35	
11	0	0	0	0	39	103	465	352	22	35	
12	0	0	0	0	39	103	465	352	22	35	
13	0	0	0	0	48	108	463	352	22	35	
14	0	0	0	0	35	103	463	352	22	35	
15	0	0	0	0	39	103	463	352	22	35	
0	0	0	0	0	39	103	463	352	22	35	
1	0	0	0	0	39	103	463	352	22	35	
2	0	0	0	0	39	103	463	352	22	35	
3	0	0	0	0	44	103	462	352	22	35	
4	0	0	0	0	39	103	462	352	22	35	
5	0	0	0	0	39	103	460	352	22	35	
6	0	0	0	0	39	103	460	352	22	35	
7	0	0	0	0	44	103	460	352	22	35	
8	0	0	0	0	39	103	460	352	22	35	
9	0	0	0	0	39	103	460	352	22	35	
10	0	0	0	0	44	103	460	352	22	35	
11	0	0	0	0	44	103	460	352	22	35	
12	0	0	0	0	39	103	460	352	22	35	
13	0	0	0	0	39	103	460	352	22	35	
14	0	0	0	0	39	103	460	352	22	35	
15	0	0	0	0	44	103	460	352	22	35	
0	0	0	0	0	44	103	460	352	22	35	
1	0	0	0	0	44	103	460	352	22	35	
2	0	0	0	0	48	105	460	352	22	35	
3	0	0	0	0	35	103	460	352	22	35	
4	0	0	0	0	39	103	460	352	22	35	
5	0	0	0	0	39	103	460	352	22	35	
6	0	0	0	0	35	103	460	352	22	35	
7	0	0	0	0	39	103	460	352	22	35	
8	0	0	0	0	39	103	457	352	22	35	
9	0	0	0	0	44	103	455	352	22	35	
10	0	0	0	0	44	103	455	352	22	35	
11	0	0	0	0	39	103	455	352	22	35	
12	0	0	0	0	39	103	455	352	22	35	
13	0	0	0	0	44	103	455	352	22	35	
14	0	0	0	0	35	103	457	352	22	35	
15	0	0	0	0	44	103	457	352	22	35	
0	0	0	0	0	44	103	460	352	22	35	
1	0	0	0	0	48	108	460	352	22	35	
2	0	0	0	0	44	103	460	352	22	35	
3	0	0	0	0	44	103	462	352	22	35	
4	0	0	0	0	39	103	462	352	22	35	
5	0	0	0	0	39	103	462	352	22	35	
6	0	0	0	0	39	103	463	352	22	35	
7	0	0	0	0	39	103	463	352	22	35	
8	0	0	0	0	44	103	462	352	22	35	
9	0	0	0	0	35	103	462	352	22	35	
10	0	0	0	0	44	103	462	352	22	35	
11	0	0	0	0	48	108	460	352	22	35	
12	0	0	0	0	44	103	460	352	22	35	
13	0	0	0	0	39	103	460	352	22	35	
14	0	0	0	0	39	103	460	352	22	35	
15	0	0	0	0	44	103	460	352	22	35	
0	0	0	0	0	39	103	460	352	22	35	
1	0	0	0	0	39	103	460	352	22	35	
2	0	0	0	0	39	103	460	352	22	35	
3	0	0	0	0	39	103	462	352	22	35	
4	0	0	0	0	39	103	462	352	22	35	
5	0	0	0	0	44	103	463	352	22	35	
6	0	0	0	0	35	103	463	352	22	35	
7	0	0	0	0	39	103	463	352	22	35	
8	0	0	0	0	39	103	463	352	22	35	
9	0	0	0	0	39	103	465	352	22	35	
10	0	0	0	0	44	103	465	352	22	35	
11	0	0	0	0	44	103	465	352	22	35	
12	0	0	0	0	49	108	465	352	22	35	
13	0	0	0	0	44	103	465	352	22	35	
14	0	0	0	0	35	103	465	352	22	35	
15	0	0	0	0	44	103	463	352	22	35	
0	0	0	0	0	39	103	463	352	22	35	
1	0	0	0	0	48	108	463	352	22	35	
2	0	0	0	0	44	103	463	352	22	35	
3	0	0	0	0	39	103	463	352	22	35	
4	0	0	0	0	44	103	463	352	22	35	
5	0	0	0	0	39	103	463	352	22	35	
6	0	0	0	0	39	103	465	352	22	35	
7	0	0	0	0	39	103	467	352	22	35	
8	0	0	0	0	39	103	467	352	22	35	
9	0	0	0	0	44	105	467	352	22	35	
10	0	0	0	0	39	103	468	352	22	35	
11	0	0	0	0	49	108	470	352	22	35	
12	0	0	0	0	35	103	472	352	22	35	
13	0	0	0	0	39	103	472	352	22	35	
14	0	0	0	0	39	103	472	352	22	35	
15	0	0	0	0	35	103	472	352	22	35	
0	0	0	0	0	39	103	472	352	22	35	
1	0	0	0	0	39	103	472	352	22	35	
2	0	0	0	0	39	103	470	352	22	35	
3	0	0	0	0	35	103	470	352	22	35	
4	0	0	0	0	44	108	467	352	22	35	
5	0	0	0	0	39	103	467	352	22	35	
6	0	0	0	0	35	103	467	352	22	35	
7	0	0	0	0	39	103	467	352	22	35	
8	0	0	0	0	44	108	467	352	22	35	
9	0	0	0	0	39	103	467	352	22	35	
10	0	0	0	0	39	103	470	352	22	35	
11	0	0	0	0	39	105	472	352	22	35	
12	0	0	0	0	39	105	472	352	22	35	
13	0	0	0	0	49	110	472	352	22	35	
14	0	0	0	0	41	108	472	352	22	35	
15	0	0	0	0	39	105	472	352	22	35	
0	0	0	0	0	44	108	472	352	22	35	
1	0	0	0	0	49	111	473	352	22	35	
2	0	0	0	0	39	108	473	352	22	35	
3	0	0	0	0	39	108	473	352	22	35	
4	0	0	0	0	39	108	473	352	22	35	
5	0	0	0	0	39	108	473	352	22	35	
6	0	0	0	0	39	108	473	352	22	35	
7	0	0	0	0	44	108	472	352	22	35	
8	0	0	0	0	39	108	472	352	22	35	
9	0	0	0	0	44	108	472	352	22	35	
10	0	0	0	0	39	108	472	352	22	35	
11	0	0	0	0	49	112	472	352	22	35	
12	0	0	0	0	49	112	472	352	22	35	
13	0	0	0	0	39	108	472	352	22	35	
14	0	0	0	0	44	110	473	352	22	35	
15	0	0	0	0	44	110	473	352	22	35	
0	0	0	0	0	39	108	476	352	22	35	
1	0	0	0	0	39	108	476	352	22	35	
2	0	0	0	0	44	110	476	352	22	35	
3	0	0	0	0	44	110	478	352	22	35	
4	0	0	0	0	39	108	480	352	22	35	
5	0	0	0	0	44	110	480	352	22	35	
6	0	0	0	0	35	108	480	352	22	35	
7	0	0	0	0	35	105	480	352	22	35	
8	0	0	0	0	44	110	480	352	22	35	
9	0	0	0	0	39	108	480	352	22	35	
10	0	0	0	0	39	108	480	352	22	35	
11	0	0	0	0	39	108	480	352	22	35	
12	0	0	0	0	39	108	480	352	22	35	
13	0	0	0	0	39	108	478	352	22	35	
14	0	0	0	0	35	108	478	352	22	35	
15	0	0	0	0	49	112	478	352	22	35	
0	0	0	0	0	39	108	478	352	22	35	
1	0	0	0	0	35	108	478	352	22	35	
2	0	0	0	0	39	108	480	352	22	35	
3	0	0	0	0	39	108	480	352	22	35	
4	0	0	0	0	39	108	480	352	22	35	
5	0	0	0	0	44	111	480	352	22	35	
6	0	0	0	0	44	111	480	352	22	35	
7	0	0	0	0	39	110	480	352	22	35	
8	0	0	0	0	39	110	480	352	22	35	
9	0	0	0	0	49	112	480	352	22	35	
10	0	0	0	0	39	110	480	352	22	35	
11	0	0	0	0	49	112	480	352	22	35	
12	0	0	0	0	44	112	480	352	22	35	
13	0	0	0	0	39	110	480	352	22	35	
14	0	0	0	0	44	112	480	352	22	35	
15	0	0	0	0	44	112	480	352	22	35	
0	0	0	0	0	39	110	480	352	22	35	
1	0	0	0	0	39	110	480	352	22	35	
2	0	0	0	0	39	111	480	352	22	35	
3	0	0	0	0	35	111	480	352	22	35	
4	0	0	0	0	44	112	480	352	22	35	
5	0	0	0	0	44	112	480	352	22	35	
6	0	0	0	0	39	112	480	352	22	35	
7	0	0	0	0	39	112	480	352	22	35	
8	0	0	0	0	39	112	480	352	22	35	
9	0	0	0	0	39	112	481	352	22	35	
10	0	0	0	0	35	112	481	352	22	35	
11	0	0	0	0	44	113	483	352	22	35	
12	0	0	0	0	39	112	483	352	22	35	
13	0	0	0	0	39	112	483	353	22	35	
14	0	0	0	0	43	113	483	353	22	35	
15	0	0	0	0	39	112	483	353	22	35	
0	0	0	0	0	39	112	483	353	22	35	
1	0	0	0	0	35	112	483	353	22	35	
2	0	0	0	0	39	112	483	353	22	35	
3	0	0	0	0	44	113	481	353	22	35	
4	0	0	0	0	39	112	481	353	22	35	
5	0	0	0	0	39	112	481	352	22	35	
6	0	0	0	0	39	112	480	352	22	35	
7	0	0	0	0	35	112	480	352	22	35	
8	0	0	0	0	44	113	480	352	22	35	
9	0	0	0	0	49	115	480	352	22	35	
10	0	0	0	0	39	112	480	352	22	35	
11	0	0	0	0	35	112	481	352	22	35	
12	0	0	0	0	39	112	481	352	22	35	
13	0	0	0	0	44	113	483	352	22	35	
14	0	0	0	0	39	112	483	352	22	35	
15	0	0	0	0	39	112	483	352	22	35	
0	0	0	0	0	39	112	483	352	22	35	
1	0	0	0	0	39	112	483	352	22	35	
2	0	0	0	0	39	112	483	352	22	35	
3	0	0	0	0	36	115	483	352	22	35	
4	0	0	0	0	35	112	483	352	22	35	
5	0	0	0	0	35	112	483	352	22	35	
6	0	0	0	0	35	112	483	352	22	35	
7	0	0	0	0	44	113	481	352	22	35	
8	0	0	0	0	39	112	481	352	22	35	
9	0	0	0	0	44	113	480	352	22	35	
10	0	0	0	0	39	112	480	352	22	35	
11	0	0	0	0	49	115	480	352	22	35	
12	0	0	0	0	39	112	480	352	22	35	
13	0	0	0	0	35	112	480	352	22	35	
14	0	0	0	0	39	112	480	352	22	35	
15	0	0	0	0	39	112	480	352	22	35	
0	0	0	0	0	44	113	480	352	22	35	
1	0	0	0	0	39	112	481	352	22	35	
2	0	0	0	0	35	112	481	352	22	35	
3	0	0	0	0	44	113	481	352	22	35	
4	0	0	0	0	39	112	483	352	22	35	
5	0	0	0	0	39	112	483	352	22	35	
6	0	0	0	0	49	115	483	352	22	35	
7	0	0	0	0	39	112	483	352	22	35	
8	0	0	0	0	39	112	483	352	22	35	
9	0	0	0	0	39	112	483	352	22	35	
10	0	0	0	0	39	112	483	352	22	35	
11	0	0	0	0	49	115	483	352	22	35	
12	0	0	0	0	44	113	481	352	22	35	
13	0	0	0	0	39	112	481	352	22	35	
14	0	0	0	0	49	115	481	352	22	35	
15	0	0	0	0	44	113	480	352	22	35	
0	0	0	0	0	39	112	480	352	22	35	
1	0	0	0	0	39	112	480	352	22	35	
2	0	0	0	0	39	112	480	352	22	35	
3	0	0	0	0	39	112	481	352	22	35	
4	0	0	0	0	44	112	481	352	22	35	
5	0	0	0	0	44	112	483	352	22	35	
6	0	0	0	0	39	112	483	352	22	35	
7	0	0	0	0	39	112	483	352	22	35	
8	0	0	0	0	39	112	483	352	22	35	
9	0	0	0	0	39	112	483	352	22	35	
10	0	0	0	0	35	112	483	352	22	35	
11	0	0	0	0	39	110	483	352	22	35	
12	0	0	0	0	39	112	483	352	22	35	
13	0	0	0	0	39	112	483	352	22	35	
14	0	0	0	0	38	112	483	352	22	35	
15	0	0	0	0	44	112	481	352	22	35	
0	0	0	0	0	39	112	481	352	22	35	
1	0	0	0	0	35	112	480	352	22	35	
2	0	0	0	0	44	112	480	352	22	35	
3	0	0	0	0	44	112	480	352	22	35	
4	0	0	0	0	39	112	480	352	22	35	
5	0	0	0	0	39	112	480	352	22	35	
6	0	0	0	0	35	112	480	352	22	35	
7	0	0	0	0	39	112	480	352	22	35	
8	0	0	0	0	44	112	480	353	22	35	
9	0	0	0	0	35	112	481	353	22	35	
10	0	0	0	0	39	112	481	353	22	35	
11	0	0	0	0	44	112	483	353	22	35	
12	0	0	0	0	39	112	483	352	22	35	
13	0	0	0	0	39	112	483	353	22	35	
14	0	0	0	0	44	112	483	353	22	35	
15	0	0	0	0	39	112	483	353	22	35	
0	0	0	0	0	49	115	483	353	22	35	
1	0	0	0	0	39	112	483	352	22	35	
2	0	0	0	0	39	112	483	353	22	35	
3	0	0	0	0	35	112	481	353	22	35	
4	0	0	0	0	39	112	481	353	22	35	
5	0	0	0	0	44	112	480	353	22	35	
6	0	0	0	0	35	112	480	353	22	35	
7	0	0	0	0	44	112	480	353	22	35	
8	0	0	0	0	44	112	480	353	22	35	
9	0	0	0	0	49	115	480	353	22	35	
10	0	0	0	0	44	112	480	353	22	35	
11	0	0	0	0	39	112	480	352	22	35	
12	0	0	0	0	44	112	481	352	22	35	
13	0	0	0	0	39	112	481	352	22	35	
14	0	0	0	0	44	112	483	352	22	35	
15	0	0	0	0	39	112	483	353	22	35	
0	0	0	0	0	39	112	483	353	22	35	
1	0	0	0	0	44	112	483	353	22	35	
2	0	0	0	0	39	112	483	353	22	35	
3	0	0	0	0	39	112	483	353	22	35	
4	0	0	0	0	39	112	483	353	22	35	
5	0	0	0	0	39	112	483	353	22	35	
6	0	0	0	0	35	112	483	353	22	35	
7	0	0	0	0	39	112	483	353	22	35	
8	0	0	0	0	35	112	483	353	22	35	
9	0	0	0	0	44	113	483	353	22	35	
10	0	0	0	0	39	112	481	353	22	35	
11	0	0	0	0	35	112	481	353	22	35	
12	0	0	0	0	39	112	481	353	22	35	
13	0	0	0	0	46	113	481	353	22	35	
14	0	0	0	0	44	113	483	353	22	35	
15	0	0	0	0	46	113	483	353	22	35	
0	0	0	0	0	39	112	483	355	22	35	
1	0	0	0	0	39	112	483	355	22	35	
2	0	0	0	0	46	113	483	355	22	35	
3	0	0	0	0	39	112	486	353	22	35	
4	0	0	0	0	46	113	486	353	22	35	
5	0	0	0	0	39	112	487	353	22	35	
6	0	0	0	0	35	112	487	353	22	35	
7	0	0	0	0	49	115	487	355	22	35	
8	0	0	0	0	39	112	487	353	22	35	
9	0	0	0	0	46	113	487	353	22	35	
10	0	0	0	0	49	115	486	353	22	35	
11	0	0	0	0	39	112	486	353	22	35	
12	0	0	0	0	39	112	483	353	22	35	
13	0	0	0	0	39	112	483	353	22	35	
14	0	0	0	0	38	112	483	353	22	35	
15	0	0	0	0	39	112	483	353	22	35	
0	0	0	0	0	35	112	483	353	22	35	
1	0	0	0	0	35	112	483	353	22	35	
2	0	0	0	0	35	112	483	353	22	35	
3	0	0	0	0	39	112	483	353	22	35	
4	0	0	0	0	39	112	486	353	22	35	
5	0	0	0	0	39	112	486	353	22	35	
6	0	0	0	0	44	113	487	353	22	35	
7	0	0	0	0	39	112	487	353	22	35	
8	0	0	0	0	39	112	487	353	22	35	
9	0	0	0	0	49	115	487	353	22	35	
10	0	0	0	0	46	113	487	353	22	35	
11	0	0	0	0	35	112	487	353	22	35	
12	0	0	0	0	39	112	487	353	22	35	
13	0	0	0	0	46	113	487	353	22	35	
14	0	0	0	0	39	112	487	353	22	35	
15	0	0	0	0	44	113	487	353	22	35	
0	0	0	0	0	44	113	487	353	22	35	
1	0	0	0	0	39	112	487	353	22	35	
2	0	0	0	0	39	112	486	353	22	35	
3	0	0	0	0	35	112	486	353	22	35	
4	0	0	0	0	39	112	486	353	22	35	
5	0	0	0	0	39	112	486	353	22	35	
6	0	0	0	0	49	115	486	353	22	35	
7	0	0	0	0	39	112	486	353	22	35	
8	0	0	0	0	39	112	487	353	22	35	
9	0	0	0	0	35	112	487	353	22	35	
10	0	0	0	0	39	112	487	353	22	35	
11	0	0	0	0	44	113	487	353	22	35	
12	0	0	0	0	39	112	487	353	22	35	
13	0	0	0	0	39	112	487	353	22	35	
14	0	0	0	0	39	112	487	353	22	35	
15	0	0	0	0	39	111	487	353	22	35	
0	0	0	0	0	48	115	487	353	22	35	
1	0	0	0	0	49	115	487	353	22	35	
2	0	0	0	0	39	112	487	353	22	35	
3	0	0	0	0	39	112	487	353	22	35	
4	0	0	0	0	46	112	487	353	22	35	
5	0	0	0	0	39	112	487	353	22	35	
6	0	0	0	0	46	112	487	353	22	35	
7	0	0	0	0	39	112	487	353	22	35	
8	0	0	0	0	39	112	487	353	22	35	
9	0	0	0	0	39	112	487	353	22	35	
10	0	0	0	0	39	112	487	353	22	35	
11	0	0	0	0	49	115	487	353	22	35	
12	0	0	0	0	39	112	487	353	22	35	
13	0	0	0	0	39	112	487	353	22	35	
14	0	0	0	0	39	112	489	353	22	35	
15	0	0	0	0	46	112	489	353	22	35	
0	0	0	0	0	44	112	492	353	22	35	
1	0	0	0	0	39	112	492	353	22	35	
2	0	0	0	0	46	112	492	353	22	35	
3	0	0	0	0	39	112	492	353	22	35	
4	0	0	0	0	44	112	492	353	22	35	
5	0	0	0	0	39	112	492	353	22	35	
6	0	0	0	0	44	112	489	353	22	35	
7	0	0	0	0	39	112	487	353	22	35	
8	0	0	0	0	44	112	487	353	22	35	
9	0	0	0	0	39	112	487	353	22	35	
10	0	0	0	0	44	112	487	353	22	35	
11	0	0	0	0	44	112	487	353	22	35	
12	0	0	0	0	39	112	487	352	22	35	
13	0	0	0	0	35	112	487	353	22	35	
14	0	0	0	0	48	113	487	353	22	35	
15	0	0	0	0	39	112	487	353	22	35	
0	0	0	0	0	44	112	487	353	22	35	
1	0	0	0	0	35	112	489	353	22	35	
2	0	0	0	0	39	112	492	353	22	35	
3	0	0	0	0	39	112	492	353	22	35	
4	0	0	0	0	39	112	492	353	22	35	
5	0	0	0	0	39	112	492	353	22	35	
6	0	0	0	0	35	112	492	353	22	35	
7	0	0	0	0	46	112	492	353	22	35	
8	0	0	0	0	39	112	492	355	22	35	
9	0	0	0	0	39	112	492	355	22	35	
10	0	0	0	0	39	112	492	355	22	35	
11	0	0	0	0	35	112	492	355	22	35	
12	0	0	0	0	39	112	489	353	22	35	
13	0	0	0	0	39	112	489	353	22	35	
14	0	0	0	0	39	112	487	355	22	35	
15	0	0	0	0	39	112	487	355	22	35	
0	0	0	0	0	39	112	487	355	22	35	
1	0	0	0	0	46	113	487	355	22	35	
2	0	0	0	0	39	112	487	355	22	35	
3	0	0	0	0	46	115	487	355	22	35	
4	0	0	0	0	39	112	489	355	22	35	
5	0	0	0	0	39	112	492	355	22	35	
6	0	0	0	0	35	112	492	355	22	35	
7	0	0	0	0	39	112	492	355	22	35	
8	0	0	0	0	49	115	492	355	22	35	
9	0	0	0	0	39	112	492	355	22	35	
10	0	0	0	0	49	115	492	355	22	35	
11	0	0	0	0	39	112	494	355	22	35	
12	0	0	0	0	39	112	492	355	22	35	
13	0	0	0	0	39	112	492	355	22	35	
14	0	0	0	0	39	112	492	355	22	35	
15	0	0	0	0	46	113	492	355	22	35	
0	0	0	0	0	46	113	492	355	22	35	
1	0	0	0	0	39	112	492	355	22	35	
2	0	0	0	0	39	112	491	355	22	35	
3	0	0	0	0	39	112	489	355	22	35	
4	0	0	0	0	39	112	489	355	22	35	
5	0	0	0	0	36	112	492	355	22	35	
6	0	0	0	0	39	112	492	355	22	35	
7	0	0	0	0	36	112	492	355	22	35	
8	0	0	0	0	39	112	494	355	22	35	
9	0	0	0	0	36	112	496	355	22	35	
10	0	0	0	0	39	112	496	355	22	35	
11	0	0	0	0	39	113	496	355	22	35	
12	0	0	0	0	39	112	497	355	22	35	
13	0	0	0	0	39	112	499	355	22	35	
14	0	0	0	0	46	115	499	353	22	35	
15	0	0	0	0	46	115	499	353	22	35	
0	0	0	0	0	39	113	502	355	22	35	
1	0	0	0	0	46	115	500	355	22	35	
2	0	0	0	0	39	112	499	353	22	35	
3	0	0	0	0	39	112	499	353	22	35	
4	0	0	0	0	39	112	499	353	22	35	
5	0	0	0	0	39	112	497	353	22	35	
6	0	0	0	0	39	112	497	353	22	35	
7	0	0	0	0	39	112	496	353	22	35	
8	0	0	0	0	39	112	496	353	22	35	
9	0	0	0	0	39	112	496	353	22	35	
10	0	0	0	0	39	112	496	353	22	35	
11	0	0	0	0	46	113	496	353	22	35	
12	0	0	0	0	35	112	496	353	22	35	
13	0	0	0	0	39	112	496	353	22	35	
14	0	0	0	0	44	113	496	353	22	35	
15	0	0	0	0	39	112	497	353	22	35	
0	0	0	0	0	39	112	499	353	22	35	
1	0	0	0	0	46	113	499	353	22	35	
2	0	0	0	0	39	112	499	353	22	35	
3	0	0	0	0	46	112	502	353	22	35	
4	0	0	0	0	39	112	504	353	22	35	
5	0	0	0	0	36	112	504	353	22	35	
6	0	0	0	0	46	115	504	353	22	35	
7	0	0	0	0	46	115	504	353	22	35	
8	0	0	0	0	49	115	504	353	22	35	
9	0	0	0	0	39	113	504	353	22	35	
10	0	0	0	0	39	113	504	353	22	35	
11	0	0	0	0	36	113	504	353	22	35	
12	0	0	0	0	39	113	505	353	22	35	
13	0	0	0	0	46	115	508	353	22	35	
14	0	0	0	0	39	113	508	353	22	35	
15	0	0	0	0	39	113	508	353	22	35	
0	0	0	0	0	39	113	510	353	22	35	
1	0	0	0	0	39	113	511	353	22	35	
2	0	0	0	0	51	118	511	353	22	35	
3	0	0	0	0	35	113	512	353	22	35	
4	0	0	0	0	46	115	513	355	22	35	
5	0	0	0	0	39	113	515	355	22	35	
6	0	0	0	0	51	118	515	355	22	35	
7	0	0	0	0	39	113	518	355	22	35	
8	0	0	0	0	39	113	519	355	22	35	
9	0	0	0	0	39	113	519	355	22	35	
10	0	0	0	0	39	115	519	355	22	35	
11	0	0	0	0	39	115	519	355	22	35	
12	0	0	0	0	46	115	519	355	22	35	
13	0	0	0	0	46	115	519	355	22	35	
14	0	0	0	0	44	115	519	355	22	35	
15	0	0	0	0	39	115	519	355	22	35	
0	0	0	0	0	39	115	519	355	22	35	
1	0	0	0	0	38	115	519	355	22	35	
2	0	0	0	0	39	115	519	355	22	35	
3	0	0	0	0	51	120	518	355	22	35	
4	0	0	0	0	39	115	518	355	22	35	
5	0	0	0	0	39	113	515	355	22	35	
6	0	0	0	0	39	113	515	355	22	35	
7	0	0	0	0	39	113	515	355	22	35	
8	0	0	0	0	39	113	513	355	22	35	
9	0	0	0	0	44	115	512	355	22	35	
10	0	0	0	0	46	115	511	355	22	35	
11	0	0	0	0	46	115	510	355	22	35	
12	0	0	0	0	39	113	508	355	22	35	
13	0	0	0	0	39	113	505	355	22	35	
14	0	0	0	0	39	112	504	355	22	35	
15	0	0	0	0	39	112	504	353	22	35	
0	0	0	0	0	36	112	504	353	22	35	
1	0	0	0	0	39	112	499	353	22	35	
2	0	0	0	0	39	112	499	353	22	35	
3	0	0	0	0	38	115	497	353	22	35	
4	0	0	0	0	39	112	496	353	22	35	
5	0	0	0	0	46	113	496	353	22	35	
6	0	0	0	0	49	115	496	353	22	35	
7	0	0	0	0	39	112	496	353	22	35	
8	0	0	0	0	35	112	496	353	22	35	
9	0	0	0	0	39	112	496	353	22	35	
10	0	0	0	0	39	112	496	353	22	35	
11	0	0	0	0	39	112	495	353	22	35	
12	0	0	0	0	39	112	494	352	22	35	
13	0	0	0	0	39	112	494	352	22	35	
14	0	0	0	0	39	113	494	352	22	35	
15	0	0	0	0	39	112	494	352	22	35	
0	0	0	0	0	46	113	492	353	22	35	
1	0	0	0	0	35	112	492	352	22	35	
2	0	0	0	0	39	112	492	352	22	35	
3	0	0	0	0	39	112	492	352	22	35	
4	0	0	0	0	39	112	489	353	22	35	
5	0	0	0	0	39	112	489	353	22	35	
6	0	0	0	0	39	112	489	352	22	35	
7	0	0	0	0	39	112	489	352	22	35	
8	0	0	0	0	39	112	489	352	22	35	
9	0	0	0	0	39	112	489	352	22	35	
10	0	0	0	0	46	113	492	352	22	35	
11	0	0	0	0	49	115	492	352	22	35	
12	0	0	0	0	46	113	492	353	22	35	
13	0	0	0	0	39	112	492	353	22	35	
14	0	0	0	0	46	113	494	353	22	35	
15	0	0	0	0	39	112	494	353	22	35	
0	0	0	0	0	39	112	494	353	22	35	
1	0	0	0	0	39	112	494	353	22	35	
2	0	0	0	0	39	112	494	353	22	35	
3	0	0	0	0	49	115	494	353	22	35	
4	0	0	0	0	46	113	494	353	22	35	
5	0	0	0	0	39	112	492	353	22	35	
6	0	0	0	0	46	113	492	353	22	35	
7	0	0	0	0	39	112	492	353	22	35	
8	0	0	0	0	39	112	489	353	22	35	
9	0	0	0	0	39	112	489	353	22	35	
10	0	0	0	0	46	113	487	353	22	35	
11	0	0	0	0	46	113	487	353	22	35	
12	0	0	0	0	39	112	487	353	22	35	
13	0	0	0	0	39	112	487	353	22	35	
14	0	0	0	0	39	112	487	353	22	35	
15	0	0	0	0	39	112	489	353	22	35	
0	0	0	0	0	46	113	492	353	22	35	
1	0	0	0	0	39	112	492	353	22	35	
2	0	0	0	0	36	112	492	353	22	35	
3	0	0	0	0	39	112	492	353	22	35	
4	0	0	0	0	39	112	494	353	22	35	
5	0	0	0	0	39	112	494	353	22	35	
6	0	0	0	0	39	112	496	353	22	35	
7	0	0	0	0	46	112	496	355	22	35	
8	0	0	0	0	39	112	496	353	22	35	
9	0	0	0	0	39	112	496	353	22	35	
10	0	0	0	0	49	115	494	353	22	35	
11	0	0	0	0	36	112	494	353	22	35	
12	0	0	0	0	39	112	494	353	22	35	
13	0	0	0	0	39	112	492	353	22	35	
14	0	0	0	0	39	112	492	353	22	35	
15	0	0	0	0	39	112	492	353	22	35	
0	0	0	0	0	39	112	492	353	22	35	
1	0	0	0	0	46	113	492	353	22	35	
2	0	0	0	0	39	112	492	353	22	35	
3	0	0	0	0	38	112	492	353	22	35	
4	0	0	0	0	39	112	492	353	22	35	
5	0	0	0	0	39	112	492	353	22	35	
6	0	0	0	0	49	115	489	353	22	35	
7	0	0	0	0	46	113	487	353	22	35	
8	0	0	0	0	39	112	487	353	22	35	
9	0	0	0	0	46	112	486	353	22	35	
10	0	0	0	0	46	112	483	352	22	35	
11	0	0	0	0	39	112	480	352	22	35	
12	0	0	0	0	39	111	476	352	22	35	
13	0	0	0	0	39	110	472	352	22	35	
14	0	0	0	0	48	112	467	352	22	35	
15	0	0	0	0	39	108	463	352	22	35	
0	0	0	0	0	39	108	460	352	22	35	
1	0	0	0	0	49	112	455	352	22	35	
2	0	0	0	0	44	110	455	352	22	35	
3	0	0	0	0	44	110	455	352	22	35	
4	0	0	0	0	39	108	455	352	22	35	
5	0	0	0	0	39	108	460	352	22	35	
6	0	0	0	0	35	110	463	352	22	35	
7	0	0	0	0	39	110	472	352	22	35	
8	0	0	0	0	35	112	480	352	22	35	
9	0	0	0	0	39	112	487	353	22	35	
10	0	0	0	0	46	115	499	355	22	35	
11	0	0	0	0	51	120	515	355	22	35	
12	0	0	0	0	46	120	531	358	22	35	
13	0	0	0	0	39	120	551	359	22	35	
14	0	0	0	0	48	124	572	359	22	35	
15	0	0	0	0	41	124	591	364	22	35	
0	0	0	0	0	44	127	617	366	23	35	
1	0	0	0	0	44	131	639	368	23	35	
2	0	0	0	0	44	135	671	371	23	35	
3	0	0	0	0	44	140	704	376	23	35	
4	0	0	0	0	46	143	729	377	24	35	
5	0	0	0	0	51	148	760	384	24	35	
6	0	0	0	0	44	152	787	385	24	35	
7	0	0	0	0	48	156	816	390	24	35	
8	0	0	0	0	48	159	841	391	24	35	
9	0	0	0	0	48	163	867	398	24	35	
10	0	0	0	0	56	167	888	399	24	35	
11	0	0	0	0	56	172	908	403	25	35	
12	0	0	0	0	62	176	924	408	25	35	
13	0	0	0	0	56	176	937	408	25	35	
14	0	0	0	0	48	176	947	412	25	35	
15	0	0	0	0	56	179	952	412	25	35	
0	0	0	0	0	51	177	952	412	25	35	
1	0	0	0	0	63	179	947	412	25	35	
2	0	0	0	0	51	176	940	412	25	35	
3	0	0	0	0	56	175	926	408	25	35	
4	0	0	0	0	51	167	908	408	25	35	
5	0	0	0	0	49	167	886	403	25	35	
6	0	0	0	0	49	161	860	399	24	35	
7	0	0	0	0	48	158	830	396	24	35	
8	0	0	0	0	48	152	798	390	24	35	
9	0	0	0	0	47	147	768	384	24	35	
10	0	0	0	0	46	142	728	380	24	35	
11	0	0	0	0	56	140	691	376	23	35	
12	0	0	0	0	44	127	655	368	23	35	
13	0	0	0	0	48	127	624	364	23	35	
14	0	0	0	0	41	120	590	359	22	35	
15	0	0	0	0	46	118	560	353	22	35	
0	0	0	0	0	39	112	531	352	22	35	
1	0	0	0	0	35	110	510	348	22	35	
2	0	0	0	0	39	108	487	344	22	35	
3	0	0	0	0	35	103	473	344	22	35	
4	0	0	0	0	44	103	463	342	22	35	
5	0	0	0	0	44	103	455	339	22	35	
6	0	0	0	0	48	103	451	339	21	35	
7	0	0	0	0	39	103	451	339	21	35	
8	0	0	0	0	39	103	454	339	21	35	
9	0	0	0	0	39	103	455	339	21	35	
10	0	0	0	0	39	103	462	342	22	35	
11	0	0	0	0	44	108	467	344	22	35	
12	0	0	0	0	44	108	473	344	22	35	
13	0	0	0	0	39	108	480	344	22	35	
14	0	0	0	0	41	110	486	345	22	35	
15	0	0	0	0	39	110	487	348	22	35	
0	0	0	0	0	39	110	494	348	22	35	
1	0	0	0	0	49	113	496	348	22	35	
2	0	0	0	0	39	111	496	348	22	35	
3	0	0	0	0	39	111	497	348	22	35	
4	0	0	0	0	39	111	496	348	22	35	
5	0	0	0	0	44	112	496	350	22	35	
6	0	0	0	0	39	110	496	348	22	35	
7	0	0	0	0	39	110	494	348	22	35	
8	0	0	0	0	44	112	492	348	22	35	
9	0	0	0	0	39	110	489	348	22	35	
10	0	0	0	0	39	110	487	348	22	35	
11	0	0	0	0	35	108	487	348	22	35	
12	0	0	0	0	44	112	487	348	22	35	
13	0	0	0	0	44	112	487	348	22	35	
14	0	0	0	0	39	110	487	348	22	35	
15	0	0	0	0	39	110	487	348	22	35	
0	0	0	0	0	39	110	489	350	22	35	
1	0	0	0	0	39	110	492	350	22	35	
2	0	0	0	0	39	111	494	350	22	35	
3	0	0	0	0	39	111	496	352	22	35	
4	0	0	0	0	35	112	496	352	22	35	
5	0	0	0	0	39	112	497	352	22	35	
6	0	0	0	0	49	115	499	352	22	35	
7	0	0	0	0	39	112	499	352	22	35	
8	0	0	0	0	44	112	502	352	22	35	
9	0	0	0	0	49	115	504	352	22	35	
10	0	0	0	0	44	113	504	352	22	35	
11	0	0	0	0	44	113	504	352	22	35	
12	0	0	0	0	39	112	504	352	22	35	
13	0	0	0	0	49	115	504	352	22	35	
14	0	0	0	0	38	112	504	352	22	35	
15	0	0	0	0	39	112	504	352	22	35	
0	0	0	0	0	39	112	502	352	22	35	
1	0	0	0	0	39	112	499	352	22	35	
2	0	0	0	0	39	112	499	352	22	35	
3	0	0	0	0	44	112	497	352	22	35	
4	0	0	0	0	44	112	497	352	22	35	
5	0	0	0	0	39	112	497	352	22	35	
6	0	0	0	0	49	115	496	352	22	35	
7	0	0	0	0	39	112	497	352	22	35	
8	0	0	0	0	39	112	497	352	22	35	
9	0	0	0	0	44	113	497	352	22	35	
10	0	0	0	0	44	113	499	352	22	35	
11	0	0	0	0	49	115	499	352	22	35	
12	0	0	0	0	49	115	504	352	22	35	
13	0	0	0	0	46	113	504	352	22	35	
14	0	0	0	0	39	112	504	352	22	35	
15	0	0	0	0	39	112	504	352	22	35	
0	0	0	0	0	39	112	505	352	22	35	
1	0	0	0	0	46	113	508	352	22	35	
2	0	0	0	0	39	112	508	352	22	35	
3	0	0	0	0	35	112	508	352	22	35	
4	0	0	0	0	46	113	508	352	22	35	
5	0	0	0	0	39	112	508	352	22	35	
6	0	0	0	0	49	115	508	352	22	35	
7	0	0	0	0	39	112	508	352	22	35	
8	0	0	0	0	39	112	508	352	22	35	
9	0	0	0	0	39	112	505	352	22	35	
10	0	0	0	0	46	113	505	352	22	35	
11	0	0	0	0	39	112	505	352	22	35	
12	0	0	0	0	39	112	505	352	22	35	
13	0	0	0	0	39	112	508	353	22	35	
14	0	0	0	0	39	112	508	353	22	35	
15	0	0	0	0	35	112	508	353	22	35	
0	0	0	0	0	39	112	510	353	22	35	
1	0	0	0	0	35	112	510	353	22	35	
2	0	0	0	0	39	112	511	353	22	35	
3	0	0	0	0	49	115	511	353	22	35	
4	0	0	0	0	39	112	512	353	22	35	
5	0	0	0	0	46	113	512	353	22	35	
6	0	0	0	0	49	115	513	353	22	35	
7	0	0	0	0	39	112	513	353	22	35	
8	0	0	0	0	39	112	515	353	22	35	
9	0	0	0	0	39	112	515	353	22	35	
10	0	0	0	0	39	112	515	353	22	35	
11	0	0	0	0	49	115	515	353	22	35	
12	0	0	0	0	49	115	515	353	22	35	
13	0	0	0	0	39	112	515	353	22	35	
14	0	0	0	0	39	112	515	353	22	35	
15	0	0	0	0	39	112	515	353	22	35	
0	0	0	0	0	46	113	515	353	22	35	
1	0	0	0	0	39	112	515	353	22	35	
2	0	0	0	0	39	112	518	353	22	35	
3	0	0	0	0	46	113	519	353	22	35	
4	0	0	0	0	39	112	519	353	22	35	
5	0	0	0	0	36	112	519	353	22	35	
6	0	0	0	0	36	112	519	353	22	35	
7	0	0	0	0	39	112	524	353	22	35	
8	0	0	0	0	39	112	524	353	22	35	
9	0	0	0	0	46	113	524	355	22	35	
10	0	0	0	0	39	112	526	355	22	35	
11	0	0	0	0	46	113	526	355	22	35	
12	0	0	0	0	39	112	526	355	22	35	
13	0	0	0	0	46	113	527	355	22	35	
14	0	0	0	0	39	112	527	355	22	35	
15	0	0	0	0	39	112	527	355	22	35	
0	0	0	0	0	39	112	527	355	22	35	
1	0	0	0	0	38	112	527	355	22	35	
2	0	0	0	0	46	113	527	355	22	35	
3	0	0	0	0	39	112	527	355	22	35	
4	0	0	0	0	39	112	527	355	22	35	
5	0	0	0	0	39	112	527	355	22	35	
6	0	0	0	0	39	112	529	355	22	35	
7	0	0	0	0	38	112	531	355	22	35	
8	0	0	0	0	46	115	532	355	22	35	
9	0	0	0	0	39	113	536	355	22	35	
10	0	0	0	0	39	113	536	355	22	35	
11	0	0	0	0	38	113	536	355	22	35	
12	0	0	0	0	39	113	537	355	22	35	
13	0	0	0	0	46	115	540	355	22	35	
14	0	0	0	0	46	115	540	355	22	35	
15	0	0	0	0	39	112	542	355	22	35	
0	0	0	0	0	39	113	542	355	22	35	
1	0	0	0	0	39	113	543	358	22	35	
2	0	0	0	0	39	113	543	356	22	35	
3	0	0	0	0	39	115	543	356	22	35	
4	0	0	0	0	39	113	543	358	22	35	
5	0	0	0	0	46	115	543	358	22	35	
6	0	0	0	0	38	115	543	358	22	35	
7	0	0	0	0	46	115	543	358	22	35	
8	0	0	0	0	38	115	543	358	22	35	
9	0	0	0	0	39	115	547	358	22	35	
10	0	0	0	0	39	115	547	358	22	35	
11	0	0	0	0	39	115	550	358	22	35	
12	0	0	0	0	39	115	551	359	22	35	
13	0	0	0	0	39	115	551	359	22	35	
14	0	0	0	0	39	115	553	359	22	35	
15	0	0	0	0	39	115	556	359	22	35	
0	0	0	0	0	46	119	558	359	22	35	
1	0	0	0	0	51	120	560	359	22	35	
2	0	0	0	0	39	118	560	359	22	35	
3	0	0	0	0	39	118	561	359	22	35	
4	0	0	0	0	39	118	563	359	22	35	
5	0	0	0	0	51	120	563	359	22	35	
6	0	0	0	0	39	118	566	359	22	35	
7	0	0	0	0	39	118	568	359	22	35	
8	0	0	0	0	39	120	568	359	22	35	
9	0	0	0	0	39	120	568	359	22	35	
10	0	0	0	0	39	120	568	359	22	35	
11	0	0	0	0	39	120	568	359	22	35	
12	0	0	0	0	39	120	569	359	22	35	
13	0	0	0	0	47	120	572	359	22	35	
14	0	0	0	0	47	120	574	359	22	35	
15	0	0	0	0	47	120	575	359	22	35	
0	0	0	0	0	41	120	575	359	22	35	
1	0	0	0	0	41	120	575	359	22	35	
2	0	0	0	0	47	120	575	359	22	35	
3	0	0	0	0	39	124	582	359	22	35	
4	0	0	0	0	41	120	583	359	22	35	
5	0	0	0	0	47	121	583	359	22	35	
6	0	0	0	0	51	124	583	359	22	35	
7	0	0	0	0	51	124	588	359	22	35	
8	0	0	0	0	51	124	588	359	22	35	
9	0	0	0	0	41	120	590	359	22	35	
10	0	0	0	0	41	120	590	359	22	35	
11	0	0	0	0	47	124	591	359	22	35	
12	0	0	0	0	41	120	591	359	22	35	
13	0	0	0	0	41	120	591	359	22	35	
14	0	0	0	0	51	126	591	359	22	35	
15	0	0	0	0	48	124	593	359	22	35	
0	0	0	0	0	41	121	595	359	22	35	
1	0	0	0	0	51	126	595	359	22	35	
2	0	0	0	0	41	121	600	359	22	35	
3	0	0	0	0	48	124	600	359	22	35	
4	0	0	0	0	48	124	600	359	22	35	
5	0	0	0	0	41	124	604	359	22	35	
6	0	0	0	0	41	124	604	359	22	35	
7	0	0	0	0	41	124	608	359	22	35	
8	0	0	0	0	48	124	608	359	22	35	
9	0	0	0	0	41	124	608	359	22	35	
10	0	0	0	0	41	124	608	359	22	35	
11	0	0	0	0	41	124	608	361	22	35	
12	0	0	0	0	41	124	608	361	23	35	
13	0	0	0	0	41	124	609	361	23	35	
14	0	0	0	0	48	126	609	361	22	35	
15	0	0	0	0	41	124	609	364	23	35	
0	0	0	0	0	41	124	609	364	23	35	
1	0	0	0	0	48	126	609	364	23	35	
2	0	0	0	0	41	124	609	364	23	35	
3	0	0	0	0	41	124	611	364	23	35	
4	0	0	0	0	41	124	611	364	23	35	
5	0	0	0	0	41	124	611	364	23	35	
6	0	0	0	0	51	127	611	364	23	35	
7	0	0	0	0	41	124	614	364	23	35	
8	0	0	0	0	48	126	614	364	23	35	
9	0	0	0	0	48	126	615	364	23	35	
10	0	0	0	0	41	124	615	364	23	35	
11	0	0	0	0	41	124	615	364	23	35	
12	0	0	0	0	48	126	615	364	23	35	
13	0	0	0	0	41	124	615	364	23	35	
14	0	0	0	0	39	124	614	364	23	35	
15	0	0	0	0	39	124	611	364	23	35	
0	0	0	0	0	41	124	611	361	23	35	
1	0	0	0	0	39	124	608	361	23	35	
2	0	0	0	0	41	124	608	361	22	35	
3	0	0	0	0	39	121	608	359	22	35	
4	0	0	0	0	51	126	604	359	22	35	
5	0	0	0	0	41	121	600	359	22	35	
6	0	0	0	0	41	120	600	359	22	35	
7	0	0	0	0	41	120	598	359	22	35	
8	0	0	0	0	41	120	595	359	22	35	
9	0	0	0	0	47	121	591	359	22	35	
10	0	0	0	0	41	120	591	359	22	35	
11	0	0	0	0	38	120	590	359	22	35	
12	0	0	0	0	39	120	588	359	22	35	
13	0	0	0	0	47	120	583	359	22	35	
14	0	0	0	0	39	120	583	359	22	35	
15	0	0	0	0	51	120	579	359	22	35	
0	0	0	0	0	46	120	575	359	22	35	
1	0	0	0	0	38	118	575	358	22	35	
2	0	0	0	0	46	120	572	358	22	35	
3	0	0	0	0	38	115	568	355	22	35	
4	0	0	0	0	46	118	566	355	22	35	
5	0	0	0	0	39	115	561	355	22	35	
6	0	0	0	0	51	120	558	355	22	35	
7	0	0	0	0	46	115	553	355	22	35	
8	0	0	0	0	39	113	551	353	22	35	
9	0	0	0	0	46	115	547	353	22	35	
10	0	0	0	0	39	112	543	353	22	35	
11	0	0	0	0	49	115	540	353	22	35	
12	0	0	0	0	46	113	537	353	22	35	
13	0	0	0	0	35	112	536	352	22	35	
14	0	0	0	0	39	112	531	352	22	35	
15	0	0	0	0	39	112	529	352	22	35	
0	0	0	0	0	39	112	527	352	22	35	
1	0	0	0	0	39	112	526	352	22	35	
2	0	0	0	0	35	112	524	352	22	35	
3	0	0	0	0	44	112	519	352	22	35	
4	0	0	0	0	39	111	519	352	22	35	
5	0	0	0	0	44	112	515	352	22	35	
6	0	0	0	0	39	110	513	352	22	35	
7	0	0	0	0	39	110	511	352	22	35	
8	0	0	0	0	39	110	510	352	22	35	
9	0	0	0	0	39	110	505	352	22	35	
10	0	0	0	0	39	108	504	352	22	35	
11	0	0	0	0	39	108	499	352	22	35	
12	0	0	0	0	44	111	497	352	22	35	
13	0	0	0	0	39	108	496	352	22	35	
14	0	0	0	0	39	108	492	352	22	35	
15	0	0	0	0	44	110	489	352	22	35	
0	0	0	0	0	39	108	487	352	22	35	
1	0	0	0	0	35	108	487	350	22	35	
2	0	0	0	0	39	108	486	350	22	35	
3	0	0	0	0	31	110	483	350	22	35	
4	0	0	0	0	39	108	483	350	22	35	
5	0	0	0	0	39	108	483	350	22	35	
6	0	0	0	0	35	108	481	350	22	35	
7	0	0	0	0	49	112	480	350	22	35	
8	0	0	0	0	39	108	480	350	22	35	
9	0	0	0	0	39	108	480	350	22	35	
10	0	0	0	0	39	108	480	350	22	35	
11	0	0	0	0	39	107	478	350	22	35	
12	0	0	0	0	39	105	476	350	22	35	
13	0	0	0	0	39	105	473	350	22	35	
14	0	0	0	0	36	105	472	350	22	35	
15	0	0	0	0	39	105	472	348	22	35	
0	0	0	0	0	48	110	472	348	22	35	
1	0	0	0	0	48	110	467	348	22	35	
2	0	0	0	0	44	108	467	348	22	35	
3	0	0	0	0	44	108	465	348	22	35	
4	0	0	0	0	44	108	465	348	22	35	
5	0	0	0	0	39	103	463	348	22	35	
6	0	0	0	0	39	103	463	348	22	35	
7	0	0	0	0	44	108	463	348	22	35	
8	0	0	0	0	39	103	463	348	22	35	
9	0	0	0	0	39	103	463	348	22	35	
10	0	0	0	0	44	108	463	348	22	35	
11	0	0	0	0	48	110	465	348	22	35	
12	0	0	0	0	48	110	465	348	22	35	
13	0	0	0	0	48	110	465	348	22	35	
14	0	0	0	0	39	103	465	348	22	35	
15	0	0	0	0	39	105	465	350	22	35	
0	0	0	0	0	44	108	463	350	22	35	
1	0	0	0	0	39	105	463	350	22	35	
2	0	0	0	0	44	108	463	350	22	35	
3	0	0	0	0	44	110	463	350	22	35	
4	0	0	0	0	44	108	463	350	22	35	
5	0	0	0	0	39	105	463	350	22	35	
6	0	0	0	0	39	103	463	350	22	35	
7	0	0	0	0	39	103	463	350	22	35	
8	0	0	0	0	39	103	463	350	22	35	
9	0	0	0	0	44	108	463	350	22	35	
10	0	0	0	0	44	108	463	350	22	35	
11	0	0	0	0	39	105	463	350	22	35	
12	0	0	0	0	39	103	463	350	22	35	
13	0	0	0	0	39	105	463	350	22	35	
14	0	0	0	0	39	103	463	350	22	35	
15	0	0	0	0	39	103	463	350	22	35	
0	0	0	0	0	39	103	463	350	22	35	
1	0	0	0	0	39	103	465	352	22	35	
2	0	0	0	0	44	108	465	352	22	35	
3	0	0	0	0	35	103	465	352	22	35	
4	0	0	0	0	44	108	465	350	22	35	
5	0	0	0	0	35	103	463	352	22	35	
6	0	0	0	0	39	103	463	352	22	35	
7	0	0	0	0	35	103	463	352	22	35	
8	0	0	0	0	39	103	463	352	22	35	
9	0	0	0	0	35	103	463	352	22	35	
10	0	0	0	0	39	103	463	352	22	35	
11	0	0	0	0	48	110	463	352	22	35	
12	0	0	0	0	39	103	463	352	22	35	
13	0	0	0	0	39	103	463	352	22	35	
14	0	0	0	0	39	103	463	352	22	35	
15	0	0	0	0	49	110	463	352	22	35	
0	0	0	0	0	44	108	465	352	22	35	
1	0	0	0	0	35	103	465	352	22	35	
2	0	0	0	0	39	103	467	352	22	35	
3	0	0	0	0	39	103	467	352	22	35	
4	0	0	0	0	44	108	467	352	22	35	
5	0	0	0	0	39	103	467	352	22	35	
6	0	0	0	0	44	108	467	352	22	35	
7	0	0	0	0	44	103	467	352	22	35	
8	0	0	0	0	39	103	467	352	22	35	
9	0	0	0	0	39	103	467	352	22	35	
10	0	0	0	0	44	108	467	352	22	35	
11	0	0	0	0	39	103	467	352	22	35	
12	0	0	0	0	39	103	467	352	22	35	
13	0	0	0	0	39	103	465	352	22	35	
14	0	0	0	0	35	103	465	352	22	35	
15	0	0	0	0	44	108	465	352	22	35	
0	0	0	0	0	44	108	465	352	22	35	
1	0	0	0	0	35	103	467	352	22	35	
2	0	0	0	0	44	108	467	352	22	35	
3	0	0	0	0	39	103	467	352	22	35	
4	0	0	0	0	44	108	467	352	22	35	
5	0	0	0	0	39	103	470	352	22	35	
6	0	0	0	0	39	105	472	352	22	35	
7	0	0	0	0	44	108	472	352	22	35	
8	0	0	0	0	39	105	472	352	22	35	
9	0	0	0	0	44	108	472	352	22	35	
10	0	0	0	0	39	105	472	352	22	35	
11	0	0	0	0	39	108	472	352	22	35	
12	0	0	0	0	44	108	472	352	22	35	
13	0	0	0	0	39	108	472	352	22	35	
14	0	0	0	0	44	108	472	352	22	35	
15	0	0	0	0	39	108	472	352	22	35	
0	0	0	0	0	49	112	472	352	22	35	
1	0	0	0	0	44	108	472	352	22	35	
2	0	0	0	0	35	108	472	352	22	35	
3	0	0	0	0	35	108	472	352	22	35	
4	0	0	0	0	39	108	472	352	22	35	
5	0	0	0	0	39	108	472	352	22	35	
6	0	0	0	0	49	112	472	352	22	35	
7	0	0	0	0	39	108	473	352	22	35	
8	0	0	0	0	35	108	476	352	22	35	
9	0	0	0	0	39	108	476	352	22	35	
10	0	0	0	0	39	108	476	352	22	35	
11	0	0	0	0	39	108	476	352	22	35	
12	0	0	0	0	39	108	478	353	22	35	
13	0	0	0	0	49	112	478	352	22	35	
14	0	0	0	0	39	108	480	352	22	35	
15	0	0	0	0	44	110	480	352	22	35	
0	0	0	0	0	39	108	480	353	22	35	
1	0	0	0	0	39	108	480	352	22	35	
2	0	0	0	0	39	108	480	352	22	35	
3	0	0	0	0	39	108	478	352	22	35	
4	0	0	0	0	39	108	478	352	22	35	
5	0	0	0	0	39	108	476	352	22	35	
6	0	0	0	0	44	111	476	352	22	35	
7	0	0	0	0	39	108	476	352	22	35	
8	0	0	0	0	35	108	476	352	22	35	
9	0	0	0	0	39	108	476	353	22	35	
10	0	0	0	0	39	108	478	353	22	35	
11	0	0	0	0	35	108	478	352	22	35	
12	0	0	0	0	49	112	480	352	22	35	
13	0	0	0	0	39	108	480	353	22	35	
14	0	0	0	0	39	108	480	353	22	35	
15	0	0	0	0	39	108	480	353	22	35	
0	0	0	0	0	39	110	480	353	22	35	
1	0	0	0	0	39	108	480	353	22	35	
2	0	0	0	0	39	110	480	353	22	35	
3	0	0	0	0	39	110	480	353	22	35	
4	0	0	0	0	39	110	480	353	22	35	
5	0	0	0	0	35	108	480	353	22	35	
6	0	0	0	0	49	112	480	352	22	35	
7	0	0	0	0	44	111	480	352	22	35	
8	0	0	0	0	39	108	480	352	22	35	
9	0	0	0	0	44	111	480	352	22	35	
10	0	0	0	0	44	111	480	352	22	35	
11	0	0	0	0	44	111	480	352	22	35	
12	0	0	0	0	39	108	480	353	22	35	
13	0	0	0	0	39	108	480	352	22	35	
14	0	0	0	0	48	112	480	353	22	35	
15	0	0	0	0	39	110	480	352	22	35	
0	0	0	0	0	44	111	480	353	22	35	
1	0	0	0	0	35	110	481	353	22	35	
2	0	0	0	0	44	111	481	352	22	35	
3	0	0	0	0	39	110	483	353	22	35	
4	0	0	0	0	44	112	483	353	22	35	
5	0	0	0	0	39	110	483	353	22	35	
6	0	0	0	0	39	110	483	353	22	35	
7	0	0	0	0	49	112	483	353	22	35	
8	0	0	0	0	35	110	483	352	22	35	
9	0	0	0	0	39	108	483	352	22	35	
10	0	0	0	0	39	110	483	352	22	35	
11	0	0	0	0	49	112	481	352	22	35	
12	0	0	0	0	39	108	481	352	22	35	
13	0	0	0	0	39	108	480	352	22	35	
14	0	0	0	0	39	108	480	352	22	35	
15	0	0	0	0	39	108	480	352	22	35	
0	0	0	0	0	44	111	480	352	22	35	
1	0	0	0	0	39	108	480	352	22	35	
2	0	0	0	0	44	111	480	352	22	35	
3	0	0	0	0	31	111	481	352	22	35	
4	0	0	0	0	39	110	483	352	22	35	
5	0	0	0	0	44	111	483	352	22	35	
6	0	0	0	0	49	112	483	352	22	35	
7	0	0	0	0	39	110	486	352	22	35	
8	0	0	0	0	39	110	486	352	22	35	
9	0	0	0	0	49	112	487	352	22	35	
10	0	0	0	0	49	112	487	353	22	35	
11	0	0	0	0	39	108	487	352	22	35	
12	0	0	0	0	44	112	487	352	22	35	
13	0	0	0	0	39	110	487	353	22	35	
14	0	0	0	0	43	112	487	353	22	35	
15	0	0	0	0	44	112	487	352	22	35	
0	0	0	0	0	49	112	486	352	22	35	
1	0	0	0	0	35	110	486	352	22	35	
2	0	0	0	0	39	110	483	352	22	35	
3	0	0	0	0	39	110	483	352	22	35	
4	0	0	0	0	44	112	483	352	22	35	
5	0	0	0	0	44	112	483	352	22	35	
6	0	0	0	0	39	110	483	352	22	35	
7	0	0	0	0	44	112	483	352	22	35	
8	0	0	0	0	39	110	483	352	22	35	
9	0	0	0	0	44	112	483	352	22	35	
10	0	0	0	0	44	112	486	352	22	35	
11	0	0	0	0	35	110	486	352	22	35	
12	0	0	0	0	49	112	487	352	22	35	
13	0	0	0	0	49	112	487	352	22	35	
14	0	0	0	0	39	110	487	352	22	35	
15	0	0	0	0	39	110	487	352	22	35	
0	0	0	0	0	39	110	487	352	22	35	
1	0	0	0	0	39	110	487	352	22	35	
2	0	0	0	0	39	110	487	352	22	35	
3	0	0	0	0	38	112	486	353	22	35	
4	0	0	0	0	39	110	486	352	22	35	
5	0	0	0	0	39	110	483	352	22	35	
6	0	0	0	0	49	112	483	352	22	35	
7	0	0	0	0	44	112	483	352	22	35	
8	0	0	0	0	39	110	483	352	22	35	
9	0	0	0	0	39	110	483	352	22	35	
10	0	0	0	0	39	110	483	352	22	35	
11	0	0	0	0	44	112	486	352	22	35	
12	0	0	0	0	44	112	486	352	22	35	
13	0	0	0	0	39	110	487	352	22	35	
14	0	0	0	0	48	113	487	352	22	35	
15	0	0	0	0	39	110	487	352	22	35	
0	0	0	0	0	39	110	487	352	22	35	
1	0	0	0	0	44	112	487	352	22	35	
2	0	0	0	0	44	112	487	352	22	35	
3	0	0	0	0	39	110	487	352	22	35	
4	0	0	0	0	39	110	487	352	22	35	
5	0	0	0	0	35	110	487	352	22	35	
6	0	0	0	0	39	110	487	352	22	35	
7	0	0	0	0	35	110	487	352	22	35	
8	0	0	0	0	39	110	487	352	22	35	
9	0	0	0	0	49	113	486	352	22	35	
10	0	0	0	0	39	110	486	352	22	35	
11	0	0	0	0	49	113	486	352	22	35	
12	0	0	0	0	39	111	486	352	22	35	
13	0	0	0	0	39	111	486	352	22	35	
14	0	0	0	0	44	112	487	352	22	35	
15	0	0	0	0	39	111	487	352	22	35	
0	0	0	0	0	39	111	487	353	22	35	
1	0	0	0	0	44	112	487	353	22	35	
2	0	0	0	0	44	112	487	352	22	35	
3	0	0	0	0	44	112	487	352	22	35	
4	0	0	0	0	39	111	487	352	22	35	
5	0	0	0	0	39	111	487	352	22	35	
6	0	0	0	0	49	113	487	353	22	35	
7	0	0	0	0	39	111	487	353	22	35	
8	0	0	0	0	39	111	487	352	22	35	
9	0	0	0	0	44	112	487	352	22	35	
10	0	0	0	0	44	112	487	353	22	35	
11	0	0	0	0	44	112	487	352	22	35	
12	0	0	0	0	39	111	487	352	22	35	
13	0	0	0	0	39	111	487	353	22	35	
14	0	0	0	0	38	111	487	353	22	35	
15	0	0	0	0	39	111	486	352	22	35	
0	0	0	0	0	49	113	486	352	22	35	
1	0	0	0	0	35	111	487	352	22	35	
2	0	0	0	0	39	112	487	352	22	35	
3	0	0	0	0	44	112	487	352	22	35	
4	0	0	0	0	44	112	487	352	22	35	
5	0	0	0	0	39	112	487	352	22	35	
6	0	0	0	0	44	112	487	352	22	35	
7	0	0	0	0	39	112	487	352	22	35	
8	0	0	0	0	39	112	487	353	22	35	
9	0	0	0	0	49	113	487	353	22	35	
10	0	0	0	0	44	112	487	353	22	35	
11	0	0	0	0	35	112	487	353	22	35	
12	0	0	0	0	39	112	487	353	22	35	
13	0	0	0	0	39	112	487	353	22	35	
14	0	0	0	0	44	112	487	353	22	35	
15	0	0	0	0	44	112	487	352	22	35	
0	0	0	0	0	44	112	487	352	22	35	
1	0	0	0	0	39	111	486	352	22	35	
2	0	0	0	0	39	111	486	352	22	35	
3	0	0	0	0	35	111	486	352	22	35	
4	0	0	0	0	39	112	486	352	22	35	
5	0	0	0	0	44	112	486	352	22	35	
6	0	0	0	0	49	113	486	352	22	35	
7	0	0	0	0	44	112	487	352	22	35	
8	0	0	0	0	39	112	487	352	22	35	
9	0	0	0	0	39	112	487	353	22	35	
10	0	0	0	0	39	112	487	353	22	35	
11	0	0	0	0	39	112	487	353	22	35	
12	0	0	0	0	39	112	489	353	22	35	
13	0	0	0	0	49	115	489	353	22	35	
14	0	0	0	0	39	112	489	353	22	35	
15	0	0	0	0	39	110	489	353	22	35	
0	0	0	0	0	44	113	489	353	22	35	
1	0	0	0	0	35	112	487	353	22	35	
2	0	0	0	0	46	112	487	353	22	35	
3	0	0	0	0	39	112	487	353	22	35	
4	0	0	0	0	46	112	487	353	22	35	
5	0	0	0	0	39	112	487	353	22	35	
6	0	0	0	0	39	112	487	353	22	35	
7	0	0	0	0	44	112	487	352	22	35	
8	0	0	0	0	39	112	487	352	22	35	
9	0	0	0	0	44	112	487	352	22	35	
10	0	0	0	0	39	111	487	353	22	35	
11	0	0	0	0	49	113	487	352	22	35	
12	0	0	0	0	39	112	487	353	22	35	
13	0	0	0	0	39	112	487	352	22	35	
14	0	0	0	0	35	111	487	352	22	35	
15	0	0	0	0	39	111	489	353	22	35	
0	0	0	0	0	35	111	492	352	22	35	
1	0	0	0	0	39	111	492	353	22	35	
2	0	0	0	0	35	111	492	353	22	35	
3	0	0	0	0	39	111	492	352	22	35	
4	0	0	0	0	35	111	492	352	22	35	
5	0	0	0	0	39	111	492	352	22	35	
6	0	0	0	0	35	111	492	352	22	35	
7	0	0	0	0	39	111	492	352	22	35	
8	0	0	0	0	39	111	489	352	22	35	
9	0	0	0	0	39	111	489	352	22	35	
10	0	0	0	0	39	111	487	352	22	35	
11	0	0	0	0	49	113	487	352	22	35	
12	0	0	0	0	39	111	487	352	22	35	
13	0	0	0	0	39	111	487	352	22	35	
14	0	0	0	0	38	111	489	352	22	35	
15	0	0	0	0	39	111	489	352	22	35	
0	0	0	0	0	39	111	492	352	22	35	
1	0	0	0	0	39	111	492	352	22	35	
2	0	0	0	0	49	113	492	352	22	35	
3	0	0	0	0	39	111	492	352	22	35	
4	0	0	0	0	39	111	494	352	22	35	
5	0	0	0	0	39	111	494	353	22	35	
6	0	0	0	0	39	111	494	352	22	35	
7	0	0	0	0	39	111	494	352	22	35	
8	0	0	0	0	39	111	494	353	22	35	
9	0	0	0	0	39	111	492	352	22	35	
10	0	0	0	0	39	111	492	353	22	35	
11	0	0	0	0	39	111	492	353	22	35	
12	0	0	0	0	39	111	492	353	22	35	
13	0	0	0	0	44	112	492	353	22	35	
14	0	0	0	0	39	111	489	353	22	35	
15	0	0	0	0	39	111	489	353	22	35	
0	0	0	0	0	39	111	487	353	22	35	
1	0	0	0	0	39	111	487	353	22	35	
2	0	0	0	0	39	111	489	353	22	35	
3	0	0	0	0	35	112	489	353	22	35	
4	0	0	0	0	39	112	492	353	22	35	
5	0	0	0	0	46	112	492	353	22	35	
6	0	0	0	0	35	112	492	353	22	35	
7	0	0	0	0	39	112	492	353	22	35	
8	0	0	0	0	39	112	492	353	22	35	
9	0	0	0	0	46	112	494	353	22	35	
10	0	0	0	0	46	112	494	353	22	35	
11	0	0	0	0	39	112	494	353	22	35	
12	0	0	0	0	39	112	494	353	22	35	
13	0	0	0	0	46	112	494	353	22	35	
14	0	0	0	0	35	112	494	353	22	35	
15	0	0	0	0	46	112	492	353	22	35	
0	0	0	0	0	46	112	492	353	22	35	
1	0	0	0	0	49	115	492	355	22	35	
2	0	0	0	0	46	112	492	353	22	35	
3	0	0	0	0	46	112	492	353	22	35	
4	0	0	0	0	39	112	492	353	22	35	
5	0	0	0	0	39	112	492	353	22	35	
6	0	0	0	0	39	112	492	353	22	35	
7	0	0	0	0	39	112	492	353	22	35	
8	0	0	0	0	46	112	492	353	22	35	
9	0	0	0	0	35	112	494	353	22	35	
10	0	0	0	0	46	112	494	353	22	35	
11	0	0	0	0	49	115	496	353	22	35	
12	0	0	0	0	46	113	496	353	22	35	
13	0	0	0	0	39	112	496	353	22	35	
14	0	0	0	0	39	112	496	353	22	35	
15	0	0	0	0	46	113	496	353	22	35	
0	0	0	0	0	39	112	496	353	22	35	
1	0	0	0	0	39	112	496	353	22	35	
2	0	0	0	0	39	112	496	353	22	35	
3	0	0	0	0	39	112	495	353	22	35	
4	0	0	0	0	39	112	494	353	22	35	
5	0	0	0	0	46	113	494	353	22	35	
6	0	0	0	0	35	112	492	353	22	35	
7	0	0	0	0	39	112	492	353	22	35	
8	0	0	0	0	39	112	492	353	22	35	
9	0	0	0	0	39	112	492	353	22	35	
10	0	0	0	0	46	113	494	353	22	35	
11	0	0	0	0	46	113	494	353	22	35	
12	0	0	0	0	49	115	494	353	22	35	
13	0	0	0	0	46	113	496	353	22	35	
14	0	0	0	0	38	112	496	353	22	35	
15	0	0	0	0	46	113	496	353	22	35	
0	0	0	0	0	39	112	496	353	22	35	
1	0	0	0	0	49	115	496	353	22	35	
2	0	0	0	0	46	113	496	353	22	35	
3	0	0	0	0	39	112	496	353	22	35	
4	0	0	0	0	39	112	496	353	22	35	
5	0	0	0	0	35	112	496	353	22	35	
6	0	0	0	0	39	112	496	353	22	35	
7	0	0	0	0	39	112	496	353	22	35	
8	0	0	0	0	46	113	496	353	22	35	
9	0	0	0	0	46	113	496	353	22	35	
10	0	0	0	0	46	113	496	352	22	35	
11	0	0	0	0	35	112	496	353	22	35	
12	0	0	0	0	39	112	496	353	22	35	
13	0	0	0	0	39	112	496	353	22	35	
14	0	0	0	0	39	112	496	352	22	35	
15	0	0	0	0	49	115	496	353	22	35	
0	0	0	0	0	39	112	496	353	22	35	
1	0	0	0	0	39	112	496	352	22	35	
2	0	0	0	0	39	112	496	353	22	35	
3	0	0	0	0	35	112	497	353	22	35	
4	0	0	0	0	46	112	497	353	22	35	
5	0	0	0	0	39	112	499	353	22	35	
6	0	0	0	0	49	115	499	353	22	35	
7	0	0	0	0	39	112	499	353	22	35	
8	0	0	0	0	39	112	499	353	22	35	
9	0	0	0	0	39	112	499	353	22	35	
10	0	0	0	0	39	112	499	353	22	35	
11	0	0	0	0	39	112	499	353	22	35	
12	0	0	0	0	39	112	499	353	22	35	
13	0	0	0	0	46	112	499	353	22	35	
14	0	0	0	0	44	113	499	353	22	35	
15	0	0	0	0	39	112	499	353	22	35	
0	0	0	0	0	46	113	499	353	22	35	
1	0	0	0	0	49	115	499	353	22	35	
2	0	0	0	0	35	112	499	353	22	35	
3	0	0	0	0	39	112	499	353	22	35	
4	0	0	0	0	39	112	499	353	22	35	
5	0	0	0	0	39	112	499	353	22	35	
6	0	0	0	0	46	112	499	353	22	35	
7	0	0	0	0	39	112	499	353	22	35	
8	0	0	0	0	39	112	500	353	22	35	
9	0	0	0	0	39	112	502	353	22	35	
10	0	0	0	0	39	112	504	353	22	35	
11	0	0	0	0	35	112	504	353	22	35	
12	0	0	0	0	39	112	504	353	22	35	
13	0	0	0	0	35	112	504	353	22	35	
14	0	0	0	0	39	112	504	353	22	35	
15	0	0	0	0	39	112	504	353	22	35	
0	0	0	0	0	39	112	504	353	22	35	
1	0	0	0	0	46	113	504	353	22	35	
2	0	0	0	0	39	112	504	353	22	35	
3	0	0	0	0	39	112	504	353	22	35	
4	0	0	0	0	39	112	504	353	22	35	
5	0	0	0	0	39	112	504	353	22	35	
6	0	0	0	0	36	112	505	353	22	35	
7	0	0	0	0	39	112	508	353	22	35	
8	0	0	0	0	36	112	508	355	22	35	
9	0	0	0	0	46	113	510	355	22	35	
10	0	0	0	0	36	112	511	355	22	35	
11	0	0	0	0	36	112	511	355	22	35	
12	0	0	0	0	39	112	512	355	22	35	
13	0	0	0	0	39	112	512	355	22	35	
14	0	0	0	0	39	112	513	355	22	35	
15	0	0	0	0	39	112	513	355	22	35	
0	0	0	0	0	46	115	515	355	22	35	
1	0	0	0	0	46	115	515	355	22	35	
2	0	0	0	0	36	113	515	355	22	35	
3	0	0	0	0	39	113	515	355	22	35	
4	0	0	0	0	39	113	515	355	22	35	
5	0	0	0	0	38	113	516	355	22	35	
6	0	0	0	0	39	113	518	355	22	35	
7	0	0	0	0	38	113	519	355	22	35	
8	0	0	0	0	38	113	519	355	22	35	
9	0	0	0	0	39	113	519	355	22	35	
10	0	0	0	0	51	118	519	355	22	35	
11	0	0	0	0	46	115	519	355	22	35	
12	0	0	0	0	39	113	519	355	22	35	
13	0	0	0	0	46	115	519	355	22	35	
14	0	0	0	0	39	113	521	355	22	35	
15	0	0	0	0	39	113	521	355	22	35	
0	0	0	0	0	39	113	521	355	22	35	
1	0	0	0	0	39	113	519	355	22	35	
2	0	0	0	0	51	118	519	355	22	35	
3	0	0	0	0	35	113	519	355	22	35	
4	0	0	0	0	46	115	519	355	22	35	
5	0	0	0	0	39	113	518	355	22	35	
6	0	0	0	0	51	118	515	355	22	35	
7	0	0	0	0	39	113	513	355	22	35	
8	0	0	0	0	39	113	512	355	22	35	
9	0	0	0	0	39	113	511	355	22	35	
10	0	0	0	0	39	112	508	355	22	35	
11	0	0	0	0	39	112	508	353	22	35	
12	0	0	0	0	46	115	504	353	22	35	
13	0	0	0	0	46	113	504	353	22	35	
14	0	0	0	0	44	113	504	353	22	35	
15	0	0	0	0	39	112	504	353	22	35	
0	0	0	0	0	39	112	504	353	22	35	
1	0	0	0	0	35	112	502	353	22	35	
2	0	0	0	0	39	112	502	353	22	35	
3	0	0	0	0	49	115	499	353	22	35	
4	0	0	0	0	39	112	499	352	22	35	
5	0	0	0	0	39	112	499	352	22	35	
6	0	0	0	0	39	112	499	352	22	35	
7	0	0	0	0	39	112	497	352	22	35	
8	0	0	0	0	46	113	496	352	22	35	
9	0	0	0	0	44	113	496	352	22	35	
10	0	0	0	0	49	115	496	353	22	35	
11	0	0	0	0	35	112	496	353	22	35	
12	0	0	0	0	39	112	494	352	22	35	
13	0	0	0	0	39	112	494	352	22	35	
14	0	0	0	0	39	112	494	352	22	35	
15	0	0	0	0	39	112	492	353	22	35	
0	0	0	0	0	39	112	492	353	22	35	
1	0	0	0	0	39	112	492	352	22	35	
2	0	0	0	0	39	112	494	353	22	35	
3	0	0	0	0	46	113	494	353	22	35	
4	0	0	0	0	39	112	496	353	22	35	
5	0	0	0	0	39	112	496	353	22	35	
6	0	0	0	0	46	113	496	353	22	35	
7	0	0	0	0	49	115	496	353	22	35	
8	0	0	0	0	39	112	496	353	22	35	
9	0	0	0	0	39	112	497	353	22	35	
10	0	0	0	0	39	112	497	353	22	35	
11	0	0	0	0	39	112	497	353	22	35	
12	0	0	0	0	39	112	496	353	22	35	
13	0	0	0	0	46	113	496	353	22	35	
14	0	0	0	0	35	112	496	353	22	35	
15	0	0	0	0	39	112	496	353	22	35	
0	0	0	0	0	35	112	496	353	22	35	
1	0	0	0	0	35	112	496	353	22	35	
2	0	0	0	0	49	115	494	353	22	35	
3	0	0	0	0	39	112	494	353	22	35	
4	0	0	0	0	39	112	494	353	22	35	
5	0	0	0	0	44	112	494	353	22	35	
6	0	0	0	0	39	112	494	353	22	35	
7	0	0	0	0	39	112	496	353	22	35	
8	0	0	0	0	46	112	496	353	22	35	
9	0	0	0	0	35	112	496	353	22	35	
10	0	0	0	0	39	112	496	353	22	35	
11	0	0	0	0	39	112	496	353	22	35	
12	0	0	0	0	39	112	496	353	22	35	
13	0	0	0	0	46	112	496	353	22	35	
14	0	0	0	0	44	112	496	353	22	35	
15	0	0	0	0	46	112	496	353	22	35	
0	0	0	0	0	39	112	496	353	22	35	
1	0	0	0	0	46	112	496	353	22	35	
2	0	0	0	0	39	112	496	353	22	35	
3	0	0	0	0	39	112	496	353	22	35	
4	0	0	0	0	35	112	496	353	22	35	
5	0	0	0	0	39	112	496	353	22	35	
6	0	0	0	0	35	112	496	353	22	35	
7	0	0	0	0	39	112	496	353	22	35	
8	0	0	0	0	35	112	496	353	22	35	
9	0	0	0	0	39	112	496	353	22	35	
10	0	0	0	0	39	112	496	353	22	35	
11	0	0	0	0	39	112	496	353	22	35	
12	0	0	0	0	46	112	496	353	22	35	
13	0	0	0	0	39	112	496	353	22	35	
14	0	0	0	0	41	112	496	353	22	35	
15	0	0	0	0	39	112	496	353	22	35	
0	0	0	0	0	39	112	496	353	22	35	
1	0	0	0	0	49	115	496	353	22	35	
2	0	0	0	0	44	112	494	353	22	35	
3	0	0	0	0	39	112	492	352	22	35	
4	0	0	0	0	44	112	489	352	22	35	
5	0	0	0	0	39	111	487	352	22	35	
6	0	0	0	0	39	110	483	352	22	35	
7	0	0	0	0	44	112	480	352	22	35	
8	0	0	0	0	44	112	476	352	22	35	
9	0	0	0	0	39	110	472	352	22	35	
10	0	0	0	0	49	112	467	352	22	35	
11	0	0	0	0	44	110	463	352	22	35	
12	0	0	0	0	39	108	463	352	22	35	
13	0	0	0	0	44	110	462	352	22	35	
14	0	0	0	0	39	108	462	352	22	35	
15	0	0	0	0	39	108	463	352	22	35	
0	0	0	0	0	39	108	463	352	22	35	
1	0	0	0	0	35	108	470	352	22	35	
2	0	0	0	0	44	112	476	352	22	35	
3	0	0	0	0	35	110	481	352	22	35	
4	0	0	0	0	39	112	492	352	22	35	
5	0	0	0	0	39	112	504	353	22	35	
6	0	0	0	0	36	113	513	355	22	35	
7	0	0	0	0	46	118	527	358	22	35	
8	0	0	0	0	39	118	543	359	22	35	
9	0	0	0	0	39	120	563	359	22	35	
10	0	0	0	0	41	124	583	361	22	35	
11	0	0	0	0	41	126	608	364	22	35	
12	0	0	0	0	44	127	632	368	23	35	
13	0	0	0	0	44	131	655	369	23	35	
14	0	0	0	0	48	135	681	371	23	35	
15	0	0	0	0	56	143	707	376	23	35	
0	0	0	0	0	46	143	736	380	24	35	
1	0	0	0	0	56	152	768	384	24	35	
2	0	0	0	0	51	153	788	385	24	35	
3	0	0	0	0	48	156	814	390	24	35	
4	0	0	0	0	48	159	838	391	24	35	
5	0	0	0	0	48	163	860	396	24	35	
6	0	0	0	0	49	167	880	399	24	35	
7	0	0	0	0	60	174	896	401	24	35	
8	0	0	0	0	49	172	910	404	25	35	
9	0	0	0	0	51	174	920	408	25	35	
10	0	0	0	0	56	176	927	408	25	35	
11	0	0	0	0	47	174	927	408	25	35	
12	0	0	0	0	51	176	927	408	25	35	
13	0	0	0	0	51	174	920	408	25	35	
14	0	0	0	0	51	172	908	408	25	35	
15	0	0	0	0	56	169	892	403	25	35	
0	0	0	0	0	49	166	871	399	24	35	
1	0	0	0	0	54	163	847	398	24	35	
2	0	0	0	0	48	158	819	391	24	35	
3	0	0	0	0	48	152	792	390	24	35	
4	0	0	0	0	56	152	760	384	24	35	
5	0	0	0	0	46	142	723	380	24	35	
6	0	0	0	0	39	135	689	374	23	35	
7	0	0	0	0	44	131	655	368	23	35	
8	0	0	0	0	48	127	624	364	23	35	
9	0	0	0	0	39	121	591	359	22	35	
10	0	0	0	0	46	120	563	355	22	35	
11	0	0	0	0	39	113	536	352	22	35	
12	0	0	0	0	44	112	513	348	22	35	
13	0	0	0	0	39	108	496	345	22	35	
14	0	0	0	0	35	108	480	344	22	35	
15	0	0	0	0	39	103	472	344	22	35	
0	0	0	0	0	39	103	463	342	22	35	
1	0	0	0	0	48	108	460	339	21	35	
2	0	0	0	0	39	103	460	339	21	35	
3	0	0	0	0	39	103	462	342	21	35	
4	0	0	0	0	39	103	463	344	22	35	
5	0	0	0	0	39	108	472	344	22	35	
6	0	0	0	0	39	108	478	344	22	35	
7	0	0	0	0	39	108	483	344	22	35	
8	0	0	0	0	39	110	487	345	22	35	
9	0	0	0	0	39	111	496	348	22	35	
10	0	0	0	0	39	112	499	348	22	35	
11	0	0	0	0	49	115	504	348	22	35	
12	0	0	0	0	49	115	504	350	22	35	
13	0	0	0	0	39	112	508	350	22	35	
14	0	0	0	0	39	112	508	350	22	35	
15	0	0	0	0	39	112	505	350	22	35	
0	0	0	0	0	39	112	504	350	22	35	
1	0	0	0	0	39	112	504	350	22	35	
2	0	0	0	0	39	111	499	350	22	35	
3	0	0	0	0	35	110	496	350	22	35	
4	0	0	0	0	39	110	494	348	22	35	
5	0	0	0	0	35	110	492	348	22	35	
6	0	0	0	0	44	112	487	348	22	35	
7	0	0	0	0	39	110	487	348	22	35	
8	0	0	0	0	39	110	487	348	22	35	
9	0	0	0	0	39	110	487	348	22	35	
10	0	0	0	0	39	110	487	348	22	35	
11	0	0	0	0	39	110	487	348	22	35	
12	0	0	0	0	44	112	492	348	22	35	
13	0	0	0	0	44	112	492	350	22	35	
14	0	0	0	0	35	111	496	350	22	35	
15	0	0	0	0	39	112	496	350	22	35	
0	0	0	0	0	35	112	499	352	22	35	
1	0	0	0	0	35	112	504	352	22	35	
2	0	0	0	0	44	112	504	352	22	35	
3	0	0	0	0	39	112	504	352	22	35	
4	0	0	0	0	39	112	505	352	22	35	
5	0	0	0	0	39	112	508	352	22	35	
6	0	0	0	0	44	113	508	352	22	35	
7	0	0	0	0	35	112	508	352	22	35	
8	0	0	0	0	39	112	505	352	22	35	
9	0	0	0	0	35	112	504	352	22	35	
10	0	0	0	0	44	112	504	352	22	35	
11	0	0	0	0	39	112	504	352	22	35	
12	0	0	0	0	39	112	504	352	22	35	
13	0	0	0	0	49	115	502	352	22	35	
14	0	0	0	0	39	112	499	352	22	35	
15	0	0	0	0	44	112	499	352	22	35	
0	0	0	0	0	39	112	499	352	22	35	
1	0	0	0	0	39	112	499	352	22	35	
2	0	0	0	0	39	112	499	352	22	35	
3	0	0	0	0	39	112	502	352	22	35	
4	0	0	0	0	39	112	504	352	22	35	
5	0	0	0	0	39	112	504	352	22	35	
6	0	0	0	0	49	115	504	352	22	35	
7	0	0	0	0	44	113	504	352	22	35	
8	0	0	0	0	39	112	505	352	22	35	
9	0	0	0	0	44	113	505	352	22	35	
10	0	0	0	0	39	112	508	352	22	35	
11	0	0	0	0	39	112	508	352	22	35	
12	0	0	0	0	39	112	508	352	22	35	
13	0	0	0	0	39	112	508	352	22	35	
14	0	0	0	0	38	112	508	352	22	35	
15	0	0	0	0	35	112	508	352	22	35	
0	0	0	0	0	39	112	508	352	22	35	
1	0	0	0	0	35	112	508	352	22	35	
2	0	0	0	0	39	112	508	352	22	35	
3	0	0	0	0	49	115	505	352	22	35	
4	0	0	0	0	39	112	508	352	22	35	
5	0	0	0	0	39	112	508	352	22	35	
6	0	0	0	0	39	112	508	352	22	35	
7	0	0	0	0	46	113	508	352	22	35	
8	0	0	0	0	39	112	508	352	22	35	
9	0	0	0	0	39	112	510	352	22	35	
10	0	0	0	0	36	112	511	352	22	35	
11	0	0	0	0	39	112	511	353	22	35	
12	0	0	0	0	39	113	512	353	22	35	
13	0	0	0	0	46	115	512	353	22	35	
14	0	0	0	0	46	115	513	353	22	35	
15	0	0	0	0	39	112	513	353	22	35	
0	0	0	0	0	39	113	513	353	22	35	
1	0	0	0	0	39	113	513	353	22	35	
2	0	0	0	0	36	113	513	353	22	35	
3	0	0	0	0	35	113	513	353	22	35	
4	0	0	0	0	46	115	513	353	22	35	
5	0	0	0	0	39	113	513	353	22	35	
6	0	0	0	0	36	113	513	353	22	35	
7	0	0	0	0	39	113	515	353	22	35	
8	0	0	0	0	46	115	515	353	22	35	
9	0	0	0	0	46	115	515	353	22	35	
10	0	0	0	0	46	115	515	353	22	35	
11	0	0	0	0	39	113	518	353	22	35	
12	0	0	0	0	39	113	518	353	22	35	
13	0	0	0	0	51	118	519	355	22	35	
14	0	0	0	0	35	113	519	355	22	35	
15	0	0	0	0	39	113	519	353	22	35	
0	0	0	0	0	39	113	519	355	22	35	
1	0	0	0	0	39	113	521	355	22	35	
2	0	0	0	0	46	115	524	355	22	35	
3	0	0	0	0	39	115	524	355	22	35	
4	0	0	0	0	39	115	524	355	22	35	
5	0	0	0	0	46	115	524	355	22	35	
6	0	0	0	0	39	115	526	355	22	35	
7	0	0	0	0	39	115	526	355	22	35	
8	0	0	0	0	38	115	526	355	22	35	
9	0	0	0	0	39	115	526	355	22	35	
10	0	0	0	0	51	120	526	355	22	35	
11	0	0	0	0	51	120	527	355	22	35	
12	0	0	0	0	39	115	527	355	22	35	
13	0	0	0	0	39	115	527	355	22	35	
14	0	0	0	0	46	115	527	355	22	35	
15	0	0	0	0	39	115	529	355	22	35	
0	0	0	0	0	39	115	531	355	22	35	
1	0	0	0	0	46	116	531	355	22	35	
2	0	0	0	0	39	115	536	355	22	35	
3	0	0	0	0	31	120	536	355	22	35	
4	0	0	0	0	39	115	536	355	22	35	
5	0	0	0	0	39	115	536	355	22	35	
6	0	0	0	0	51	120	536	355	22	35	
7	0	0	0	0	46	118	537	355	22	35	
8	0	0	0	0	39	115	537	355	22	35	
9	0	0	0	0	39	115	540	355	22	35	
10	0	0	0	0	38	115	540	355	22	35	
11	0	0	0	0	39	115	540	355	22	35	
12	0	0	0	0	51	120	540	355	22	35	
13	0	0	0	0	39	115	540	355	22	35	
14	0	0	0	0	44	118	540	355	22	35	
15	0	0	0	0	39	115	540	355	22	35	
0	0	0	0	0	46	118	542	355	22	35	
1	0	0	0	0	51	120	543	355	22	35	
2	0	0	0	0	39	115	543	355	22	35	
3	0	0	0	0	46	119	543	355	22	35	
4	0	0	0	0	39	115	543	355	22	35	
5	0	0	0	0	39	115	547	358	22	35	
6	0	0	0	0	46	120	550	356	22	35	
7	0	0	0	0	46	120	551	356	22	35	
8	0	0	0	0	39	118	551	358	22	35	
9	0	0	0	0	46	120	553	356	22	35	
10	0	0	0	0	39	118	556	358	22	35	
11	0	0	0	0	39	118	556	358	22	35	
12	0	0	0	0	39	118	558	358	22	35	
13	0	0	0	0	39	118	558	358	22	35	
14	0	0	0	0	39	118	560	358	22	35	
15	0	0	0	0	39	118	560	358	22	35	
0	0	0	0	0	46	120	560	359	22	35	
1	0	0	0	0	39	118	560	359	22	35	
2	0	0	0	0	46	120	560	359	22	35	
3	0	0	0	0	39	120	561	359	22	35	
4	0	0	0	0	39	120	563	359	22	35	
5	0	0	0	0	39	120	563	359	22	35	
6	0	0	0	0	51	121	568	359	22	35	
7	0	0	0	0	38	120	568	359	22	35	
8	0	0	0	0	51	121	568	359	22	35	
9	0	0	0	0	39	120	572	359	22	35	
10	0	0	0	0	39	120	572	359	22	35	
11	0	0	0	0	47	120	575	359	22	35	
12	0	0	0	0	39	120	575	359	22	35	
13	0	0	0	0	39	120	575	359	22	35	
14	0	0	0	0	39	120	575	359	22	35	
15	0	0	0	0	39	120	579	359	22	35	
0	0	0	0	0	47	121	582	359	22	35	
1	0	0	0	0	51	124	582	359	22	35	
2	0	0	0	0	41	120	583	359	22	35	
3	0	0	0	0	41	120	583	359	22	35	
4	0	0	0	0	41	120	583	359	22	35	
5	0	0	0	0	51	124	583	359	22	35	
6	0	0	0	0	41	120	588	359	22	35	
7	0	0	0	0	41	121	588	359	22	35	
8	0	0	0	0	41	121	590	359	22	35	
9	0	0	0	0	41	121	591	359	22	35	
10	0	0	0	0	41	121	591	359	22	35	
11	0	0	0	0	39	121	591	359	22	35	
12	0	0	0	0	41	121	595	359	22	35	
13	0	0	0	0	41	124	595	359	22	35	
14	0	0	0	0	41	124	600	359	22	35	
15	0	0	0	0	48	124	600	359	22	35	
0	0	0	0	0	41	124	600	359	22	35	
1	0	0	0	0	41	124	600	359	22	35	
2	0	0	0	0	41	124	601	359	22	35	
3	0	0	0	0	41	121	604	359	22	35	
4	0	0	0	0	41	124	604	359	22	35	
5	0	0	0	0	48	126	604	359	22	35	
6	0	0	0	0	39	124	604	359	22	35	
7	0	0	0	0	48	126	604	359	22	35	
8	0	0	0	0	48	126	604	361	22	35	
9	0	0	0	0	41	124	604	361	22	35	
10	0	0	0	0	41	124	608	361	22	35	
11	0	0	0	0	48	126	608	361	22	35	
12	0	0	0	0	51	127	608	361	22	35	
13	0	0	0	0	48	127	608	361	22	35	
14	0	0	0	0	46	127	608	361	22	35	
15	0	0	0	0	41	124	608	361	22	35	
0	0	0	0	0	48	127	609	361	22	35	
1	0	0	0	0	39	126	609	361	22	35	
2	0	0	0	0	48	127	611	361	22	35	
3	0	0	0	0	41	126	611	361	22	35	
4	0	0	0	0	48	127	611	361	22	35	
5	0	0	0	0	41	126	611	361	22	35	
6	0	0	0	0	41	126	611	361	22	35	
7	0	0	0	0	48	127	611	359	22	35	
8	0	0	0	0	41	126	611	359	22	35	
9	0	0	0	0	48	127	609	359	22	35	
10	0	0	0	0	41	124	608	359	22	35	
11	0	0	0	0	51	127	608	359	22	35	
12	0	0	0	0	41	124	608	359	22	35	
13	0	0	0	0	41	124	604	359	22	35	
14	0	0	0	0	51	127	604	359	22	35	
15	0	0	0	0	41	124	600	359	22	35	
0	0	0	0	0	48	126	600	359	22	35	
1	0	0	0	0	41	124	600	359	22	35	
2	0	0	0	0	47	124	595	359	22	35	
3	0	0	0	0	47	124	593	359	22	35	
4	0	0	0	0	47	124	591	359	22	35	
5	0	0	0	0	41	121	591	359	22	35	
6	0	0	0	0	51	126	588	359	22	35	
7	0	0	0	0	47	124	585	359	22	35	
8	0	0	0	0	47	124	583	359	22	35	
9	0	0	0	0	39	120	582	359	22	35	
10	0	0	0	0	39	120	575	359	22	35	
11	0	0	0	0	47	121	575	358	22	35	
12	0	0	0	0	39	120	572	358	22	35	
13	0	0	0	0	39	120	568	358	22	35	
14	0	0	0	0	39	120	568	355	22	35	
15	0	0	0	0	46	120	561	355	22	35	
0	0	0	0	0	38	118	560	355	22	35	
1	0	0	0	0	51	120	556	355	22	35	
2	0	0	0	0	51	120	551	355	22	35	
3	0	0	0	0	39	115	547	355	22	35	
4	0	0	0	0	39	115	543	353	22	35	
5	0	0	0	0	39	115	543	353	22	35	
6	0	0	0	0	46	118	540	353	22	35	
7	0	0	0	0	46	115	536	352	22	35	
8	0	0	0	0	39	115	536	352	22	35	
9	0	0	0	0	39	113	531	352	22	35	
10	0	0	0	0	46	115	527	352	22	35	
11	0	0	0	0	35	113	527	352	22	35	
12	0	0	0	0	46	115	524	352	22	35	
13	0	0	0	0	44	115	521	352	22	35	
14	0	0	0	0	39	112	519	352	22	35	
15	0	0	0	0	39	112	515	352	22	35	
0	0	0	0	0	39	112	513	352	22	35	
1	0	0	0	0	39	112	511	352	22	35	
2	0	0	0	0	39	112	508	352	22	35	
3	0	0	0	0	39	112	505	352	22	35	
4	0	0	0	0	39	112	504	352	22	35	
5	0	0	0	0	39	111	499	352	22	35	
6	0	0	0	0	35	111	497	350	22	35	
7	0	0	0	0	39	110	496	350	22	35	
8	0	0	0	0	39	110	494	350	22	35	
9	0	0	0	0	39	110	492	350	22	35	
10	0	0	0	0	49	112	489	348	22	35	
11	0	0	0	0	49	112	487	348	22	35	
12	0	0	0	0	39	110	487	348	22	35	
13	0	0	0	0	39	110	487	348	22	35	
14	0	0	0	0	39	108	487	348	22	35	
15	0	0	0	0	39	108	486	348	22	35	
0	0	0	0	0	39	108	483	348	22	35	
1	0	0	0	0	39	108	483	348	22	35	
2	0	0	0	0	44	110	481	348	22	35	
3	0	0	0	0	44	110	480	348	22	35	
4	0	0	0	0	44	110	480	348	22	35	
5	0	0	0	0	39	108	480	348	22	35	
6	0	0	0	0	48	112	476	348	22	35	
7	0	0	0	0	39	108	473	348	22	35	
8	0	0	0	0	39	108	472	348	22	35	
9	0	0	0	0	39	108	472	348	22	35	
10	0	0	0	0	39	108	472	348	22	35	
11	0	0	0	0	48	111	468	348	22	35	
12	0	0	0	0	44	108	467	348	22	35	
13	0	0	0	0	35	105	467	348	21	35	
14	0	0	0	0	39	105	467	348	21	35	
15	0	0	0	0	39	105	467	348	21	35	
0	0	0	0	0	39	105	467	348	21	35	
1	0	0	0	0	39	105	467	348	21	35	
2	0	0	0	0	39	105	467	348	21	35	
3	0	0	0	0	39	105	467	348	21	35	
4	0	0	0	0	39	105	467	348	21	35	
5	0	0	0	0	44	108	467	348	21	35	
6	0	0	0	0	35	105	467	348	21	35	
7	0	0	0	0	39	103	467	348	21	35	
8	0	0	0	0	39	105	467	348	21	35	
9	0	0	0	0	39	105	467	348	21	35	
10	0	0	0	0	35	105	465	350	21	35	
11	0	0	0	0	39	105	463	350	21	35	
12	0	0	0	0	44	108	463	350	21	35	
13	0	0	0	0	39	105	463	350	21	35	
14	0	0	0	0	35	105	463	350	21	35	
15	0	0	0	0	39	105	463	350	21	35	
0	0	0	0	0	44	108	463	350	21	35	
1	0	0	0	0	39	105	463	350	21	35	
2	0	0	0	0	39	105	463	350	21	35	
3	0	0	0	0	39	105	463	350	21	35	
4	0	0	0	0	39	105	463	350	21	35	
5	0	0	0	0	44	108	463	350	21	35	
6	0	0	0	0	39	105	463	350	21	35	
7	0	0	0	0	44	108	463	350	21	35	
8	0	0	0	0	39	105	463	352	21	35	
9	0	0	0	0	39	107	463	352	21	35	
10	0	0	0	0	39	108	463	350	21	35	
11	0	0	0	0	48	111	463	352	21	35	
12	0	0	0	0	39	108	463	352	21	35	
13	0	0	0	0	44	108	463	352	21	35	
14	0	0	0	0	39	108	463	352	21	35	
15	0	0	0	0	39	108	463	352	21	35	
0	0	0	0	0	44	108	463	352	21	35	
1	0	0	0	0	48	112	463	352	21	35	
2	0	0	0	0	39	108	463	352	21	35	
3	0	0	0	0	35	108	463	352	21	35	
4	0	0	0	0	39	108	463	352	21	35	
5	0	0	0	0	44	108	463	352	21	35	
6	0	0	0	0	39	108	463	352	21	35	
7	0	0	0	0	39	108	463	352	21	35	
8	0	0	0	0	39	108	463	352	21	35	
9	0	0	0	0	44	110	465	352	22	35	
10	0	0	0	0	35	108	465	352	22	35	
11	0	0	0	0	39	108	467	352	22	35	
12	0	0	0	0	35	108	467	352	22	35	
13	0	0	0	0	39	108	467	352	22	35	
14	0	0	0	0	39	108	467	352	22	35	
15	0	0	0	0	39	108	467	352	22	35	
0	0	0	0	0	39	108	467	352	22	35	
1	0	0	0	0	49	112	467	352	22	35	
2	0	0	0	0	39	108	467	352	21	35	
3	0	0	0	0	39	108	467	352	22	35	
4	0	0	0	0	39	108	465	352	22	35	
5	0	0	0	0	49	112	465	352	22	35	
6	0	0	0	0	39	108	463	352	22	35	
7	0	0	0	0	39	108	463	352	22	35	
8	0	0	0	0	39	108	463	352	22	35	
9	0	0	0	0	35	108	465	352	21	35	
10	0	0	0	0	35	108	465	352	22	35	
11	0	0	0	0	35	108	467	352	22	35	
12	0	0	0	0	39	108	467	352	22	35	
13	0	0	0	0	39	108	467	352	22	35	
14	0	0	0	0	39	108	467	352	22	35	
15	0	0	0	0	44	111	467	352	22	35	
0	0	0	0	0	39	108	470	352	22	35	
1	0	0	0	0	39	108	472	352	22	35	
2	0	0	0	0	39	108	472	352	22	35	
3	0	0	0	0	39	108	472	352	22	35	
4	0	0	0	0	35	110	472	352	22	35	
5	0	0	0	0	39	108	472	352	22	35	
6	0	0	0	0	49	112	470	352	22	35	
7	0	0	0	0	39	110	470	352	22	35	
8	0	0	0	0	44	111	468	352	22	35	
9	0	0	0	0	49	112	467	352	22	35	
10	0	0	0	0	44	111	467	352	22	35	
11	0	0	0	0	44	111	467	352	22	35	
12	0	0	0	0	39	110	470	352	22	35	
13	0	0	0	0	49	112	470	352	22	35	
14	0	0	0	0	35	110	472	352	22	35	
15	0	0	0	0	39	110	472	352	22	35	
0	0	0	0	0	39	110	472	352	22	35	
1	0	0	0	0	39	110	472	352	22	35	
2	0	0	0	0	39	110	472	352	22	35	
3	0	0	0	0	44	112	473	352	22	35	
4	0	0	0	0	44	111	473	352	22	35	
5	0	0	0	0	39	110	476	352	22	35	
6	0	0	0	0	49	112	476	352	22	35	
7	0	0	0	0	39	110	476	352	22	35	
8	0	0	0	0	39	110	476	352	22	35	
9	0	0	0	0	44	111	473	352	22	35	
10	0	0	0	0	44	112	473	352	22	35	
11	0	0	0	0	49	112	472	352	22	35	
12	0	0	0	0	49	112	472	352	22	35	
13	0	0	0	0	44	111	472	352	22	35	
14	0	0	0	0	39	110	472	352	22	35	
15	0	0	0	0	39	110	472	352	22	35	
0	0	0	0	0	39	110	472	352	22	35	
1	0	0	0	0	44	112	472	352	22	35	
2	0	0	0	0	39	110	473	352	22	35	
3	0	0	0	0	35	110	476	352	22	35	
4	0	0	0	0	44	112	476	352	22	35	
5	0	0	0	0	39	110	476	352	22	35	
6	0	0	0	0	49	112	478	352	22	35	
7	0	0	0	0	39	110	480	352	22	35	
8	0	0	0	0	39	110	480	352	22	35	
9	0	0	0	0	39	110	480	352	22	35	
10	0	0	0	0	44	112	480	352	22	35	
11	0	0	0	0	39	108	480	352	22	35	
12	0	0	0	0	39	110	480	352	22	35	
13	0	0	0	0	39	110	480	352	22	35	
14	0	0	0	0	39	110	480	352	22	35	
15	0	0	0	0	49	112	480	352	22	35	
0	0	0	0	0	39	110	478	352	22	35	
1	0	0	0	0	44	112	478	352	22	35	
2	0	0	0	0	39	110	478	352	22	35	
3	0	0	0	0	39	110	476	352	22	35	
4	0	0	0	0	39	110	476	352	22	35	
5	0	0	0	0	39	110	478	352	22	35	
6	0	0	0	0	44	112	480	352	22	35	
7	0	0	0	0	39	110	480	352	22	35	
8	0	0	0	0	39	110	480	352	22	35	
9	0	0	0	0	44	112	480	352	22	35	
10	0	0	0	0	39	110	480	352	22	35	
11	0	0	0	0	39	110	481	352	22	35	
12	0	0	0	0	39	110	481	352	22	35	
13	0	0	0	0	44	112	481	352	22	35	
14	0	0	0	0	39	110	481	352	22	35	
15	0	0	0	0	44	112	481	352	22	35	
0	0	0	0	0	39	110	481	352	22	35	
1	0	0	0	0	39	110	481	352	22	35	
2	0	0	0	0	49	113	480	352	22	35	
3	0	0	0	0	39	110	480	352	22	35	
4	0	0	0	0	44	112	480	352	22	35	
5	0	0	0	0	39	110	480	352	22	35	
6	0	0	0	0	39	110	480	352	22	35	
7	0	0	0	0	44	112	480	352	22	35	
8	0	0	0	0	39	110	480	352	22	35	
9	0	0	0	0	39	110	480	352	22	35	
10	0	0	0	0	39	110	480	352	22	35	
11	0	0	0	0	44	112	480	352	22	35	
12	0	0	0	0	39	111	481	352	22	35	
13	0	0	0	0	44	112	481	352	22	35	
14	0	0	0	0	39	112	483	352	22	35	
15	0	0	0	0	44	112	483	352	22	35	
0	0	0	0	0	44	112	483	352	22	35	
1	0	0	0	0	39	112	486	353	22	35	
2	0	0	0	0	39	112	486	353	22	35	
3	0	0	0	0	39	112	486	353	22	35	
4	0	0	0	0	44	112	486	353	22	35	
5	0	0	0	0	39	112	483	352	22	35	
6	0	0	0	0	44	112	483	353	22	35	
7	0	0	0	0	35	112	483	353	22	35	
8	0	0	0	0	39	112	483	353	22	35	
9	0	0	0	0	44	112	481	353	22	35	
10	0	0	0	0	39	112	481	352	22	35	
11	0	0	0	0	49	115	480	352	22	35	
12	0	0	0	0	39	112	480	352	22	35	
13	0	0	0	0	39	112	481	353	22	35	
14	0	0	0	0	39	112	481	353	22	35	
15	0	0	0	0	35	112	481	352	22	35	
0	0	0	0	0	49	115	483	352	22	35	
1	0	0	0	0	39	112	483	352	22	35	
2	0	0	0	0	44	112	483	352	22	35	
3	0	0	0	0	39	112	486	352	22	35	
4	0	0	0	0	44	112	486	352	22	35	
5	0	0	0	0	39	112	487	353	22	35	
6	0	0	0	0	49	115	487	353	22	35	
7	0	0	0	0	39	112	487	352	22	35	
8	0	0	0	0	44	112	487	352	22	35	
9	0	0	0	0	39	112	486	352	22	35	
10	0	0	0	0	44	112	486	352	22	35	
11	0	0	0	0	39	112	483	352	22	35	
12	0	0	0	0	39	112	483	352	22	35	
13	0	0	0	0	35	112	483	352	22	35	
14	0	0	0	0	38	112	483	352	22	35	
15	0	0	0	0	39	112	483	352	22	35	
0	0	0	0	0	44	112	483	352	22	35	
1	0	0	0	0	49	113	483	352	22	35	
2	0	0	0	0	39	112	483	352	22	35	
3	0	0	0	0	39	112	483	352	22	35	
4	0	0	0	0	39	112	483	352	22	35	
5	0	0	0	0	39	112	483	352	22	35	
6	0	0	0	0	39	112	486	352	22	35	
7	0	0	0	0	44	112	486	352	22	35	
8	0	0	0	0	39	112	487	352	22	35	
9	0	0	0	0	44	112	487	352	22	35	
10	0	0	0	0	39	112	487	352	22	35	
11	0	0	0	0	49	113	487	352	22	35	
12	0	0	0	0	49	113	487	352	22	35	
13	0	0	0	0	44	112	487	352	22	35	
14	0	0	0	0	39	111	486	352	22	35	
15	0	0	0	0	39	111	486	352	22	35	
0	0	0	0	0	44	112	483	352	22	35	
1	0	0	0	0	39	111	483	352	22	35	
2	0	0	0	0	39	111	483	352	22	35	
3	0	0	0	0	39	115	483	352	22	35	
4	0	0	0	0	35	111	483	352	22	35	
5	0	0	0	0	44	112	483	352	22	35	
6	0	0	0	0	35	111	483	352	22	35	
7	0	0	0	0	49	113	483	352	22	35	
8	0	0	0	0	39	111	484	352	22	35	
9	0	0	0	0	44	112	486	352	22	35	
10	0	0	0	0	39	110	487	352	22	35	
11	0	0	0	0	39	111	487	352	22	35	
12	0	0	0	0	39	111	487	352	22	35	
13	0	0	0	0	39	111	487	352	22	35	
14	0	0	0	0	39	111	487	352	22	35	
15	0	0	0	0	39	108	487	352	22	35	
0	0	0	0	0	39	112	487	352	22	35	
1	0	0	0	0	49	113	487	352	22	35	
2	0	0	0	0	39	110	487	352	22	35	
3	0	0	0	0	39	110	486	352	22	35	
4	0	0	0	0	39	110	486	352	22	35	
5	0	0	0	0	39	110	483	352	22	35	
6	0	0	0	0	44	112	483	352	22	35	
7	0	0	0	0	39	110	483	352	22	35	
8	0	0	0	0	35	110	483	352	22	35	
9	0	0	0	0	39	110	483	352	22	35	
10	0	0	0	0	49	113	483	352	22	35	
11	0	0	0	0	49	113	483	352	22	35	
12	0	0	0	0	39	110	483	352	22	35	
13	0	0	0	0	49	113	483	352	22	35	
14	0	0	0	0	39	111	486	352	22	35	
15	0	0	0	0	49	113	487	352	22	35	
0	0	0	0	0	39	111	487	352	22	35	
1	0	0	0	0	39	111	487	352	22	35	
2	0	0	0	0	39	111	487	352	22	35	
3	0	0	0	0	39	111	487	353	22	35	
4	0	0	0	0	44	112	487	353	22	35	
5	0	0	0	0	44	112	487	353	22	35	
6	0	0	0	0	39	112	487	353	22	35	
7	0	0	0	0	39	112	487	353	22	35	
8	0	0	0	0	39	112	486	353	22	35	
9	0	0	0	0	39	112	486	353	22	35	
10	0	0	0	0	35	112	483	353	22	35	
11	0	0	0	0	39	112	483	353	22	35	
12	0	0	0	0	35	112	483	353	22	35	
13	0	0	0	0	39	112	483	353	22	35	
14	0	0	0	0	35	112	483	353	22	35	
15	0	0	0	0	39	112	483	353	22	35	
0	0	0	0	0	39	112	486	353	22	35	
1	0	0	0	0	44	112	486	353	22	35	
2	0	0	0	0	39	112	486	353	22	35	
3	0	0	0	0	39	112	486	353	22	35	
4	0	0	0	0	44	112	487	353	22	35	
5	0	0	0	0	39	112	487	353	22	35	
6	0	0	0	0	44	112	487	353	22	35	
7	0	0	0	0	35	112	487	353	22	35	
8	0	0	0	0	39	112	486	353	22	35	
9	0	0	0	0	35	112	486	353	22	35	
10	0	0	0	0	39	112	484	353	22	35	
11	0	0	0	0	49	115	483	353	22	35	
12	0	0	0	0	39	112	483	352	22	35	
13	0	0	0	0	44	112	483	352	22	35	
14	0	0	0	0	39	112	483	352	22	35	
15	0	0	0	0	35	112	483	352	22	35	
0	0	0	0	0	39	112	483	352	22	35	
1	0	0	0	0	44	112	483	352	22	35	
2	0	0	0	0	44	112	483	352	22	35	
3	0	0	0	0	39	112	483	352	22	35	
4	0	0	0	0	39	112	486	352	22	35	
5	0	0	0	0	39	112	486	352	22	35	
6	0	0	0	0	35	112	487	352	22	35	
7	0	0	0	0	44	112	487	352	22	35	
8	0	0	0	0	39	112	487	352	22	35	
9	0	0	0	0	44	112	487	352	22	35	
10	0	0	0	0	39	112	487	352	22	35	
11	0	0	0	0	49	115	487	352	22	35	
12	0	0	0	0	44	112	487	352	22	35	
13	0	0	0	0	35	112	487	352	22	35	
14	0	0	0	0	39	112	487	352	22	35	
15	0	0	0	0	39	112	487	352	22	35	
0	0	0	0	0	39	112	487	352	22	35	
1	0	0	0	0	39	112	486	352	22	35	
2	0	0	0	0	35	112	486	352	22	35	
3	0	0	0	0	44	112	486	352	22	35	
4	0	0	0	0	39	112	486	352	22	35	
5	0	0	0	0	44	112	486	352	22	35	
6	0	0	0	0	39	112	486	352	22	35	
7	0	0	0	0	39	112	486	352	22	35	
8	0	0	0	0	39	112	487	352	22	35	
9	0	0	0	0	39	112	487	352	22	35	
10	0	0	0	0	39	112	487	352	22	35	
11	0	0	0	0	39	112	487	352	22	35	
12	0	0	0	0	44	112	487	353	22	35	
13	0	0	0	0	39	112	487	353	22	35	
14	0	0	0	0	39	112	487	352	22	35	
15	0	0	0	0	44	112	487	353	22	35	
0	0	0	0	0	39	112	487	353	22	35	
1	0	0	0	0	35	112	487	353	22	35	
2	0	0	0	0	39	112	487	353	22	35	
3	0	0	0	0	31	113	487	353	22	35	
4	0	0	0	0	39	112	487	352	22	35	
5	0	0	0	0	39	112	487	353	22	35	
6	0	0	0	0	35	112	487	353	22	35	
7	0	0	0	0	49	113	487	353	22	35	
8	0	0	0	0	39	112	487	353	22	35	
9	0	0	0	0	39	112	487	353	22	35	
10	0	0	0	0	39	112	487	353	22	35	
11	0	0	0	0	39	112	487	353	22	35	
12	0	0	0	0	39	112	487	353	22	35	
13	0	0	0	0	39	112	487	353	22	35	
14	0	0	0	0	38	112	487	353	22	35	
15	0	0	0	0	39	112	487	353	22	35	
0	0	0	0	0	49	113	487	353	22	35	
1	0	0	0	0	49	113	487	353	22	35	
2	0	0	0	0	44	112	487	353	22	35	
3	0	0	0	0	44	112	487	353	22	35	
4	0	0	0	0	39	112	487	353	22	35	
5	0	0	0	0	39	112	487	353	22	35	
6	0	0	0	0	49	115	487	353	22	35	
7	0	0	0	0	35	112	487	353	22	35	
8	0	0	0	0	39	112	487	353	22	35	
9	0	0	0	0	39	112	487	353	22	35	
10	0	0	0	0	44	112	487	352	22	35	
11	0	0	0	0	39	112	487	352	22	35	
12	0	0	0	0	39	112	487	352	22	35	
13	0	0	0	0	39	112	487	353	22	35	
14	0	0	0	0	44	112	487	352	22	35	
15	0	0	0	0	39	112	487	352	22	35	
0	0	0	0	0	39	112	487	352	22	35	
1	0	0	0	0	35	112	487	352	22	35	
2	0	0	0	0	39	112	487	352	22	35	
3	0	0	0	0	35	112	489	352	22	35	
4	0	0	0	0	39	112	492	352	22	35	
5	0	0	0	0	39	112	492	353	22	35	
6	0	0	0	0	39	112	492	353	22	35	
7	0	0	0	0	39	112	492	353	22	35	
8	0	0	0	0	39	112	492	353	22	35	
9	0	0	0	0	44	112	489	353	22	35	
10	0	0	0	0	39	112	489	353	22	35	
11	0	0	0	0	39	112	487	353	22	35	
12	0	0	0	0	39	112	487	353	22	35	
13	0	0	0	0	49	115	487	353	22	35	
14	0	0	0	0	39	112	487	353	22	35	
15	0	0	0	0	44	112	487	353	22	35	
0	0	0	0	0	44	112	487	353	22	35	
1	0	0	0	0	35	112	487	353	22	35	
2	0	0	0	0	44	112	487	353	22	35	
3	0	0	0	0	49	115	487	353	22	35	
4	0	0	0	0	44	112	489	353	22	35	
5	0	0	0	0	35	112	492	353	22	35	
6	0	0	0	0	49	115	492	353	22	35	
7	0	0	0	0	39	112	492	353	22	35	
8	0	0	0	0	44	113	492	353	22	35	
9	0	0	0	0	39	112	492	353	22	35	
10	0	0	0	0	44	113	492	353	22	35	
11	0	0	0	0	49	115	492	353	22	35	
12	0	0	0	0	39	112	492	353	22	35	
13	0	0	0	0	44	112	492	353	22	35	
14	0	0	0	0	39	112	492	353	22	35	
15	0	0	0	0	39	112	489	353	22	35	
0	0	0	0	0	39	112	489	353	22	35	
1	0	0	0	0	49	115	487	353	22	35	
2	0	0	0	0	39	112	487	353	22	35	
3	0	0	0	0	39	112	487	353	22	35	
4	0	0	0	0	44	112	487	353	22	35	
5	0	0	0	0	39	112	487	353	22	35	
6	0	0	0	0	39	112	487	353	22	35	
7	0	0	0	0	39	112	489	353	22	35	
8	0	0	0	0	44	112	492	353	22	35	
9	0	0	0	0	44	112	492	353	22	35	
10	0	0	0	0	39	112	492	353	22	35	
11	0	0	0	0	44	112	492	353	22	35	
12	0	0	0	0	39	112	494	353	22	35	
13	0	0	0	0	39	112	494	353	22	35	
14	0	0	0	0	36	112	494	353	22	35	
15	0	0	0	0	44	112	494	353	22	35	
0	0	0	0	0	44	112	494	353	22	35	
1	0	0	0	0	35	112	494	353	22	35	
2	0	0	0	0	44	112	492	353	22	35	
3	0	0	0	0	39	112	492	353	22	35	
4	0	0	0	0	44	112	492	353	22	35	
5	0	0	0	0	39	112	492	353	22	35	
6	0	0	0	0	39	112	492	353	22	35	
7	0	0	0	0	44	112	492	353	22	35	
8	0	0	0	0	39	112	489	353	22	35	
9	0	0	0	0	44	112	489	353	22	35	
10	0	0	0	0	39	112	492	353	22	35	
11	0	0	0	0	39	112	492	353	22	35	
12	0	0	0	0	44	112	492	353	22	35	
13	0	0	0	0	39	112	492	353	22	35	
14	0	0	0	0	44	112	492	353	22	35	
15	0	0	0	0	39	112	494	353	22	35	
0	0	0	0	0	49	115	494	353	22	35	
1	0	0	0	0	44	113	496	353	22	35	
2	0	0	0	0	35	112	496	353	22	35	
3	0	0	0	0	35	112	496	353	22	35	
4	0	0	0	0	39	112	496	353	22	35	
5	0	0	0	0	39	112	496	353	22	35	
6	0	0	0	0	49	115	496	353	22	35	
7	0	0	0	0	39	112	496	353	22	35	
8	0	0	0	0	35	112	496	353	22	35	
9	0	0	0	0	39	112	496	353	22	35	
10	0	0	0	0	39	112	496	353	22	35	
11	0	0	0	0	44	113	496	353	22	35	
12	0	0	0	0	39	112	496	353	22	35	
13	0	0	0	0	39	112	496	353	22	35	
14	0	0	0	0	39	112	496	353	22	35	
15	0	0	0	0	49	115	496	353	22	35	
0	0	0	0	0	44	113	496	353	22	35	
1	0	0	0	0	39	112	496	353	22	35	
2	0	0	0	0	49	115	497	353	22	35	
3	0	0	0	0	39	112	497	353	22	35	
4	0	0	0	0	35	112	497	353	22	35	
5	0	0	0	0	39	112	499	355	22	35	
6	0	0	0	0	35	112	499	353	22	35	
7	0	0	0	0	39	112	499	355	22	35	
8	0	0	0	0	39	112	499	355	22	35	
9	0	0	0	0	44	113	499	355	22	35	
10	0	0	0	0	39	112	499	353	22	35	
11	0	0	0	0	35	112	499	353	22	35	
12	0	0	0	0	44	113	502	355	22	35	
13	0	0	0	0	39	112	502	353	22	35	
14	0	0	0	0	39	112	504	353	22	35	
15	0	0	0	0	39	112	504	353	22	35	
0	0	0	0	0	44	113	504	353	22	35	
1	0	0	0	0	39	112	504	353	22	35	
2	0	0	0	0	35	112	504	353	22	35	
3	0	0	0	0	39	112	504	353	22	35	
4	0	0	0	0	35	112	505	353	22	35	
5	0	0	0	0	35	112	508	353	22	35	
6	0	0	0	0	35	112	508	353	22	35	
7	0	0	0	0	39	112	510	353	22	35	
8	0	0	0	0	44	115	511	353	22	35	
9	0	0	0	0	39	112	511	353	22	35	
10	0	0	0	0	39	112	512	353	22	35	
11	0	0	0	0	39	113	512	355	22	35	
12	0	0	0	0	39	113	513	355	22	35	
13	0	0	0	0	49	118	515	355	22	35	
14	0	0	0	0	39	113	515	355	22	35	
15	0	0	0	0	39	113	515	355	22	35	
0	0	0	0	0	39	113	515	355	22	35	
1	0	0	0	0	35	113	515	355	22	35	
2	0	0	0	0	44	115	515	355	22	35	
3	0	0	0	0	39	113	515	355	22	35	
4	0	0	0	0	39	113	515	355	22	35	
5	0	0	0	0	39	113	515	355	22	35	
6	0	0	0	0	49	118	515	355	22	35	
7	0	0	0	0	39	113	518	355	22	35	
8	0	0	0	0	39	113	516	355	22	35	
9	0	0	0	0	39	113	515	355	22	35	
10	0	0	0	0	39	113	515	355	22	35	
11	0	0	0	0	49	116	515	355	22	35	
12	0	0	0	0	44	115	515	355	22	35	
13	0	0	0	0	39	112	515	355	22	35	
14	0	0	0	0	39	112	513	355	22	35	
15	0	0	0	0	35	112	512	355	22	35	
0	0	0	0	0	39	112	511	355	22	35	
1	0	0	0	0	35	112	510	353	22	35	
2	0	0	0	0	39	112	508	353	22	35	
3	0	0	0	0	31	113	504	353	22	35	
4	0	0	0	0	39	112	504	353	22	35	
5	0	0	0	0	49	115	504	353	22	35	
6	0	0	0	0	39	112	499	353	22	35	
7	0	0	0	0	39	112	499	353	22	35	
8	0	0	0	0	49	115	497	352	22	35	
9	0	0	0	0	39	112	496	352	22	35	
10	0	0	0	0	35	112	496	352	22	35	
11	0	0	0	0	39	112	496	352	22	35	
12	0	0	0	0	35	112	496	352	22	35	
13	0	0	0	0	39	112	494	352	22	35	
14	0	0	0	0	35	112	494	352	22	35	
15	0	0	0	0	44	112	492	352	22	35	
0	0	0	0	0	39	112	492	352	22	35	
1	0	0	0	0	49	115	492	352	22	35	
2	0	0	0	0	44	112	492	352	22	35	
3	0	0	0	0	44	112	489	352	22	35	
4	0	0	0	0	39	112	487	352	22	35	
5	0	0	0	0	39	112	487	352	22	35	
6	0	0	0	0	44	112	487	352	22	35	
7	0	0	0	0	35	112	487	352	22	35	
8	0	0	0	0	39	112	487	352	22	35	
9	0	0	0	0	35	112	487	352	22	35	
10	0	0	0	0	39	112	487	352	22	35	
11	0	0	0	0	39	112	487	352	22	35	
12	0	0	0	0	39	112	487	353	22	35	
13	0	0	0	0	44	112	487	352	22	35	
14	0	0	0	0	39	112	487	353	22	35	
15	0	0	0	0	44	112	487	353	22	35	
0	0	0	0	0	44	112	487	353	22	35	
1	0	0	0	0	39	112	487	353	22	35	
2	0	0	0	0	39	112	489	353	22	35	
3	0	0	0	0	39	115	489	353	22	35	
4	0	0	0	0	49	115	492	353	22	35	
5	0	0	0	0	39	112	492	353	22	35	
6	0	0	0	0	49	115	492	353	22	35	
7	0	0	0	0	44	112	492	353	22	35	
8	0	0	0	0	39	112	492	353	22	35	
9	0	0	0	0	39	112	492	353	22	35	
10	0	0	0	0	39	112	489	353	22	35	
11	0	0	0	0	44	112	487	353	22	35	
12	0	0	0	0	35	112	487	353	22	35	
13	0	0	0	0	39	112	487	353	22	35	
14	0	0	0	0	35	112	487	353	22	35	
15	0	0	0	0	44	112	487	353	22	35	
0	0	0	0	0	35	112	487	353	22	35	
1	0	0	0	0	49	115	487	353	22	35	
2	0	0	0	0	44	112	487	353	22	35	
3	0	0	0	0	44	112	487	353	22	35	
4	0	0	0	0	49	115	487	352	22	35	
5	0	0	0	0	39	112	489	352	22	35	
6	0	0	0	0	44	112	492	353	22	35	
7	0	0	0	0	35	112	492	353	22	35	
8	0	0	0	0	39	112	492	353	22	35	
9	0	0	0	0	39	112	492	353	22	35	
10	0	0	0	0	39	112	494	353	22	35	
11	0	0	0	0	49	112	494	353	22	35	
12	0	0	0	0	39	112	492	353	22	35	
13	0	0	0	0	39	112	492	353	22	35	
14	0	0	0	0	39	112	492	353	22	35	
15	0	0	0	0	39	112	492	353	22	35	
0	0	0	0	0	39	112	492	353	22	35	
1	0	0	0	0	49	115	489	353	22	35	
2	0	0	0	0	39	112	487	353	22	35	
3	0	0	0	0	39	112	487	353	22	35	
4	0	0	0	0	39	112	487	353	22	35	
5	0	0	0	0	39	112	487	353	22	35	
6	0	0	0	0	44	112	487	353	22	35	
7	0	0	0	0	39	112	487	353	22	35	
8	0	0	0	0	39	112	487	353	22	35	
9	0	0	0	0	39	112	487	353	22	35	
10	0	0	0	0	44	112	487	353	22	35	
11	0	0	0	0	44	112	487	353	22	35	
12	0	0	0	0	39	111	486	353	22	35	
13	0	0	0	0	39	110	483	353	22	35	
14	0	0	0	0	38	110	480	352	22	35	
15	0	0	0	0	39	110	478	352	22	35	
0	0	0	0	0	44	111	473	352	22	35	
1	0	0	0	0	39	108	472	352	22	35	
2	0	0	0	0	35	108	463	352	22	35	
3	0	0	0	0	39	108	462	352	22	35	
4	0	0	0	0	39	108	455	352	22	35	
5	0	0	0	0	39	108	455	352	21	35	
6	0	0	0	0	39	105	454	350	21	35	
7	0	0	0	0	44	108	451	350	21	35	
8	0	0	0	0	39	108	454	350	21	35	
9	0	0	0	0	39	108	455	352	21	35	
10	0	0	0	0	44	110	460	352	22	35	
11	0	0	0	0	44	110	467	352	22	35	
12	0	0	0	0	39	110	476	352	22	35	
13	0	0	0	0	39	112	486	352	22	35	
14	0	0	0	0	39	112	497	355	22	35	
15	0	0	0	0	46	115	512	355	22	35	
0	0	0	0	0	46	118	527	358	22	35	
1	0	0	0	0	46	120	547	359	22	35	
2	0	0	0	0	51	124	568	359	22	35	
3	0	0	0	0	39	124	591	364	22	35	
4	0	0	0	0	41	127	615	368	22	35	
5	0	0	0	0	44	131	639	368	23	35	
6	0	0	0	0	54	135	671	371	23	35	
7	0	0	0	0	44	137	700	376	23	35	
8	0	0	0	0	49	143	728	377	23	35	
9	0	0	0	0	46	147	760	384	24	35	
10	0	0	0	0	51	152	785	385	24	35	
11	0	0	0	0	48	156	814	390	24	35	
12	0	0	0	0	48	159	839	391	24	35	
13	0	0	0	0	48	163	864	398	24	35	
14	0	0	0	0	48	167	888	399	24	35	
15	0	0	0	0	46	172	904	403	25	35	
0	0	0	0	0	49	174	920	408	25	35	
1	0	0	0	0	62	179	934	408	25	35	
2	0	0	0	0	56	177	942	409	25	35	
3	0	0	0	0	56	179	944	412	25	35	
4	0	0	0	0	51	176	944	412	25	35	
5	0	0	0	0	56	177	940	412	25	35	
6	0	0	0	0	51	176	927	409	25	35	
7	0	0	0	0	49	172	913	408	25	35	
8	0	0	0	0	49	167	896	403	25	35	
9	0	0	0	0	48	166	871	399	24	35	
10	0	0	0	0	48	159	844	398	24	35	
11	0	0	0	0	57	159	814	391	24	35	
12	0	0	0	0	47	152	780	387	24	35	
13	0	0	0	0	51	147	743	384	24	35	
14	0	0	0	0	44	140	710	376	24	35	
15	0	0	0	0	44	134	671	371	23	35	
0	0	0	0	0	44	127	638	367	23	35	
1	0	0	0	0	41	124	604	359	23	35	
2	0	0	0	0	46	120	572	355	22	35	
3	0	0	0	0	39	115	542	352	22	35	
4	0	0	0	0	39	112	515	350	22	35	
5	0	0	0	0	48	112	494	345	22	35	
6	0	0	0	0	35	105	476	344	22	35	
7	0	0	0	0	39	103	462	342	22	35	
8	0	0	0	0	39	103	451	339	21	35	
9	0	0	0	0	39	103	448	339	21	35	
10	0	0	0	0	39	103	444	339	21	35	
11	0	0	0	0	41	103	444	339	21	35	
12	0	0	0	0	39	103	448	339	21	35	
13	0	0	0	0	43	103	451	342	21	35	
14	0	0	0	0	35	103	455	344	21	35	
15	0	0	0	0	39	103	463	344	21	35	
0	0	0	0	0	39	108	472	344	22	35	
1	0	0	0	0	35	108	476	344	22	35	
2	0	0	0	0	44	111	481	345	22	35	
3	0	0	0	0	44	112	486	348	22	35	
4	0	0	0	0	39	110	487	348	22	35	
5	0	0	0	0	39	110	492	348	22	35	
6	0	0	0	0	44	112	492	348	22	35	
7	0	0	0	0	39	111	492	348	22	35	
8	0	0	0	0	44	112	492	348	22	35	
9	0	0	0	0	48	113	492	348	22	35	
10	0	0	0	0	39	110	489	348	22	35	
11	0	0	0	0	39	110	487	348	22	35	
12	0	0	0	0	35	110	487	348	22	35	
13	0	0	0	0	44	111	487	348	22	35	
14	0	0	0	0	39	108	486	348	22	35	
15	0	0	0	0	48	111	483	348	22	35	
0	0	0	0	0	39	108	483	348	22	35	
1	0	0	0	0	39	108	483	348	22	35	
2	0	0	0	0	44	112	486	348	22	35	
3	0	0	0	0	35	110	487	348	22	35	
4	0	0	0	0	44	112	487	350	22	35	
5	0	0	0	0	39	110	487	350	22	35	
6	0	0	0	0	35	110	489	350	22	35	
7	0	0	0	0	39	111	492	352	22	35	
8	0	0	0	0	44	112	494	352	22	35	
9	0	0	0	0	39	111	496	352	22	35	
10	0	0	0	0	44	112	496	352	22	35	
11	0	0	0	0	39	112	496	352	22	35	
12	0	0	0	0	44	112	497	352	22	35	
13	0	0	0	0	39	112	497	352	22	35	
14	0	0	0	0	44	112	499	352	22	35	
15	0	0	0	0	39	112	499	352	22	35	
0	0	0	0	0	39	112	499	352	22	35	
1	0	0	0	0	49	113	497	352	22	35	
2	0	0	0	0	39	112	497	352	22	35	
3	0	0	0	0	39	112	496	352	22	35	
4	0	0	0	0	39	111	496	352	22	35	
5	0	0	0	0	44	112	496	352	22	35	
6	0	0	0	0	39	111	496	352	22	35	
7	0	0	0	0	39	111	496	352	22	35	
8	0	0	0	0	44	112	496	352	22	35	
9	0	0	0	0	39	111	496	352	22	35	
10	0	0	0	0	39	111	496	352	22	35	
11	0	0	0	0	35	111	496	352	22	35	
12	0	0	0	0	44	112	496	352	22	35	
13	0	0	0	0	39	111	496	352	22	35	
14	0	0	0	0	44	112	496	352	22	35	
15	0	0	0	0	39	112	497	352	22	35	
0	0	0	0	0	39	112	499	352	22	35	
1	0	0	0	0	39	112	499	352	22	35	
2	0	0	0	0	44	112	499	352	22	35	
3	0	0	0	0	44	112	502	352	22	35	
4	0	0	0	0	39	112	504	352	22	35	
5	0	0	0	0	44	112	504	352	22	35	
6	0	0	0	0	35	112	504	352	22	35	
7	0	0	0	0	39	112	504	352	22	35	
8	0	0	0	0	39	112	504	352	22	35	
9	0	0	0	0	39	112	504	352	22	35	
10	0	0	0	0	39	112	504	352	22	35	
11	0	0	0	0	39	112	504	352	22	35	
12	0	0	0	0	39	112	504	352	22	35	
13	0	0	0	0	39	112	504	353	22	35	
14	0	0	0	0	38	112	504	353	22	35	
15	0	0	0	0	39	112	504	353	22	35	
0	0	0	0	0	39	112	504	353	22	35	
1	0	0	0	0	35	112	504	353	22	35	
2	0	0	0	0	35	112	504	353	22	35	
3	0	0	0	0	39	112	505	353	22	35	
4	0	0	0	0	44	115	508	353	22	35	
5	0	0	0	0	44	115	508	353	22	35	
6	0	0	0	0	44	115	510	353	22	35	
7	0	0	0	0	49	115	511	353	22	35	
8	0	0	0	0	39	113	512	353	22	35	
9	0	0	0	0	39	113	512	353	22	35	
10	0	0	0	0	49	116	512	355	22	35	
11	0	0	0	0	35	113	513	353	22	35	
12	0	0	0	0	39	113	513	353	22	35	
13	0	0	0	0	39	113	513	353	22	35	
14	0	0	0	0	35	113	513	353	22	35	
15	0	0	0	0	39	113	513	353	22	35	
0	0	0	0	0	46	115	513	353	22	35	
1	0	0	0	0	39	113	513	353	22	35	
2	0	0	0	0	39	113	513	353	22	35	
3	0	0	0	0	39	115	513	353	22	35	
4	0	0	0	0	35	113	515	353	22	35	
5	0	0	0	0	39	113	515	353	22	35	
6	0	0	0	0	49	118	515	353	22	35	
7	0	0	0	0	39	113	516	353	22	35	
8	0	0	0	0	39	113	518	353	22	35	
9	0	0	0	0	39	113	519	353	22	35	
10	0	0	0	0	46	115	519	353	22	35	
11	0	0	0	0	39	113	519	353	22	35	
12	0	0	0	0	46	115	519	355	22	35	
13	0	0	0	0	39	113	521	353	22	35	
14	0	0	0	0	39	113	524	355	22	35	
15	0	0	0	0	35	113	524	355	22	35	
0	0	0	0	0	39	115	524	355	22	35	
1	0	0	0	0	46	115	524	355	22	35	
2	0	0	0	0	39	115	524	355	22	35	
3	0	0	0	0	39	115	524	355	22	35	
4	0	0	0	0	39	115	524	355	22	35	
5	0	0	0	0	46	115	524	355	22	35	
6	0	0	0	0	39	115	524	355	22	35	
7	0	0	0	0	46	115	524	355	22	35	
8	0	0	0	0	39	115	526	355	22	35	
9	0	0	0	0	46	115	527	355	22	35	
10	0	0	0	0	36	115	527	355	22	35	
11	0	0	0	0	36	115	527	355	22	35	
12	0	0	0	0	46	116	527	355	22	35	
13	0	0	0	0	46	118	531	355	22	35	
14	0	0	0	0	46	118	531	355	22	35	
15	0	0	0	0	46	118	536	355	22	35	
0	0	0	0	0	39	115	536	355	22	35	
1	0	0	0	0	46	118	536	355	22	35	
2	0	0	0	0	39	115	537	355	22	35	
3	0	0	0	0	31	115	540	355	22	35	
4	0	0	0	0	39	115	540	355	22	35	
5	0	0	0	0	39	115	540	355	22	35	
6	0	0	0	0	38	115	540	355	22	35	
7	0	0	0	0	38	115	540	355	22	35	
8	0	0	0	0	39	115	540	355	22	35	
9	0	0	0	0	39	115	540	355	22	35	
10	0	0	0	0	39	115	542	355	22	35	
11	0	0	0	0	38	115	542	355	22	35	
12	0	0	0	0	39	115	543	355	22	35	
13	0	0	0	0	51	120	543	355	22	35	
14	0	0	0	0	38	116	543	355	22	35	
15	0	0	0	0	39	116	543	355	22	35	
0	0	0	0	0	39	118	547	355	22	35	
1	0	0	0	0	39	118	550	358	22	35	
2	0	0	0	0	39	118	551	358	22	35	
3	0	0	0	0	39	118	551	358	22	35	
4	0	0	0	0	46	120	553	358	22	35	
5	0	0	0	0	39	118	556	358	22	35	
6	0	0	0	0	51	120	556	358	22	35	
7	0	0	0	0	39	119	558	358	22	35	
8	0	0	0	0	39	120	560	358	22	35	
9	0	0	0	0	46	120	560	358	22	35	
10	0	0	0	0	46	120	560	358	22	35	
11	0	0	0	0	51	121	560	358	22	35	
12	0	0	0	0	38	120	561	359	22	35	
13	0	0	0	0	38	120	563	359	22	35	
14	0	0	0	0	39	120	563	359	22	35	
15	0	0	0	0	51	121	563	359	22	35	
0	0	0	0	0	39	120	568	359	22	35	
1	0	0	0	0	39	120	568	359	22	35	
2	0	0	0	0	39	120	568	359	22	35	
3	0	0	0	0	39	120	569	359	22	35	
4	0	0	0	0	39	120	572	359	22	35	
5	0	0	0	0	46	120	574	359	22	35	
6	0	0	0	0	51	124	575	359	22	35	
7	0	0	0	0	46	121	575	359	22	35	
8	0	0	0	0	51	124	575	359	22	35	
9	0	0	0	0	39	120	582	359	22	35	
10	0	0	0	0	39	120	583	359	22	35	
11	0	0	0	0	39	120	583	359	22	35	
12	0	0	0	0	39	120	583	359	22	35	
13	0	0	0	0	51	126	583	359	22	35	
14	0	0	0	0	44	124	588	359	22	35	
15	0	0	0	0	39	121	588	359	22	35	
0	0	0	0	0	39	121	588	359	22	35	
1	0	0	0	0	41	121	590	359	22	35	
2	0	0	0	0	41	121	590	359	22	35	
3	0	0	0	0	41	121	591	359	22	35	
4	0	0	0	0	41	121	591	359	22	35	
5	0	0	0	0	47	124	591	359	22	35	
6	0	0	0	0	41	121	591	359	22	35	
7	0	0	0	0	41	124	595	359	22	35	
8	0	0	0	0	41	124	595	359	22	35	
9	0	0	0	0	39	124	600	359	22	35	
10	0	0	0	0	51	127	600	359	22	35	
11	0	0	0	0	39	124	600	359	22	35	
12	0	0	0	0	41	124	604	359	22	35	
13	0	0	0	0	41	124	604	359	22	35	
14	0	0	0	0	41	124	604	359	22	35	
15	0	0	0	0	41	124	608	359	22	35	
0	0	0	0	0	41	124	608	361	22	35	
1	0	0	0	0	41	124	608	359	22	35	
2	0	0	0	0	41	124	608	359	22	35	
3	0	0	0	0	48	126	608	359	22	35	
4	0	0	0	0	41	124	608	359	22	35	
5	0	0	0	0	41	124	608	359	22	35	
6	0	0	0	0	48	126	608	359	22	35	
7	0	0	0	0	51	127	608	359	22	35	
8	0	0	0	0	41	124	608	359	22	35	
9	0	0	0	0	41	124	608	359	22	35	
10	0	0	0	0	41	124	608	359	22	35	
11	0	0	0	0	41	124	608	361	22	35	
12	0	0	0	0	41	124	608	359	22	35	
13	0	0	0	0	48	126	608	359	22	35	
14	0	0	0	0	38	124	609	359	22	35	
15	0	0	0	0	41	124	609	359	22	35	
0	0	0	0	0	39	124	609	359	22	35	
1	0	0	0	0	39	124	609	361	22	35	
2	0	0	0	0	51	127	609	361	22	35	
3	0	0	0	0	41	124	609	361	22	35	
4	0	0	0	0	41	124	608	359	22	35	
5	0	0	0	0	48	126	608	359	22	35	
6	0	0	0	0	41	124	608	359	22	35	
7	0	0	0	0	41	124	604	359	22	35	
8	0	0	0	0	48	126	604	359	22	35	
9	0	0	0	0	39	124	600	359	22	35	
10	0	0	0	0	41	124	600	359	22	35	
11	0	0	0	0	41	124	595	359	22	35	
12	0	0	0	0	41	124	593	359	22	35	
13	0	0	0	0	47	124	591	359	22	35	
14	0	0	0	0	47	124	590	359	22	35	
15	0	0	0	0	47	124	588	359	22	35	
0	0	0	0	0	39	121	583	359	22	35	
1	0	0	0	0	47	124	583	359	22	35	
2	0	0	0	0	39	120	582	359	22	35	
3	0	0	0	0	39	120	575	359	22	35	
4	0	0	0	0	38	120	575	359	22	35	
5	0	0	0	0	39	120	574	359	22	35	
6	0	0	0	0	38	120	569	358	22	35	
7	0	0	0	0	39	118	568	358	22	35	
8	0	0	0	0	46	120	563	355	22	35	
9	0	0	0	0	46	120	560	355	22	35	
10	0	0	0	0	39	118	556	355	22	35	
11	0	0	0	0	39	118	551	355	22	35	
12	0	0	0	0	39	115	547	355	22	35	
13	0	0	0	0	39	115	543	355	22	35	
14	0	0	0	0	35	115	542	353	22	35	
15	0	0	0	0	46	115	537	353	22	35	
0	0	0	0	0	39	115	536	353	22	35	
1	0	0	0	0	39	115	531	353	22	35	
2	0	0	0	0	39	113	527	353	22	35	
3	0	0	0	0	39	113	527	353	22	35	
4	0	0	0	0	39	113	524	352	22	35	
5	0	0	0	0	49	115	521	352	22	35	
6	0	0	0	0	39	112	519	352	22	35	
7	0	0	0	0	39	112	519	352	22	35	
8	0	0	0	0	39	112	515	352	22	35	
9	0	0	0	0	39	112	512	352	22	35	
10	0	0	0	0	39	112	511	352	22	35	
11	0	0	0	0	35	112	508	352	22	35	
12	0	0	0	0	39	112	504	352	22	35	
13	0	0	0	0	49	113	504	352	22	35	
14	0	0	0	0	39	111	499	352	22	35	
15	0	0	0	0	44	112	496	352	22	35	
0	0	0	0	0	39	110	494	352	22	35	
1	0	0	0	0	49	112	492	350	22	35	
2	0	0	0	0	39	110	487	350	22	35	
3	0	0	0	0	35	108	486	350	22	35	
4	0	0	0	0	39	108	483	350	22	35	
5	0	0	0	0	39	108	481	350	22	35	
6	0	0	0	0	49	112	480	350	22	35	
7	0	0	0	0	39	108	480	350	22	35	
8	0	0	0	0	39	108	480	350	22	35	
9	0	0	0	0	39	108	478	350	22	35	
10	0	0	0	0	39	108	478	350	22	35	
11	0	0	0	0	44	110	476	350	22	35	
12	0	0	0	0	39	108	476	350	22	35	
13	0	0	0	0	39	108	476	350	22	35	
14	0	0	0	0	39	110	473	350	22	35	
15	0	0	0	0	44	108	472	350	22	35	
0	0	0	0	0	39	108	472	350	22	35	
1	0	0	0	0	49	111	472	350	22	35	
2	0	0	0	0	39	108	470	348	21	35	
3	0	0	0	0	39	108	467	348	21	35	
4	0	0	0	0	39	105	465	348	21	35	
5	0	0	0	0	44	108	463	348	21	35	
6	0	0	0	0	44	108	463	348	21	35	
7	0	0	0	0	39	105	463	348	21	35	
8	0	0	0	0	44	108	462	348	21	35	
9	0	0	0	0	39	105	462	348	21	35	
10	0	0	0	0	44	108	462	348	21	35	
11	0	0	0	0	48	110	460	348	21	35	
12	0	0	0	0	44	108	462	348	21	35	
13	0	0	0	0	48	110	462	348	21	35	
14	0	0	0	0	39	105	462	348	21	35	
15	0	0	0	0	39	105	462	348	21	35	
0	0	0	0	0	39	105	462	350	21	35	
1	0	0	0	0	39	105	463	350	21	35	
2	0	0	0	0	49	110	462	350	21	35	
3	0	0	0	0	44	108	462	348	21	35	
4	0	0	0	0	39	105	462	348	21	35	
5	0	0	0	0	39	105	462	350	21	35	
6	0	0	0	0	39	105	460	350	21	35	
7	0	0	0	0	39	105	460	350	21	35	
8	0	0	0	0	39	105	460	348	21	35	
9	0	0	0	0	39	105	457	348	21	35	
10	0	0	0	0	44	108	455	348	21	35	
11	0	0	0	0	39	105	455	350	21	35	
12	0	0	0	0	39	105	455	348	21	35	
13	0	0	0	0	39	105	455	350	21	35	
14	0	0	0	0	36	105	455	350	21	35	
15	0	0	0	0	39	105	455	350	21	35	
0	0	0	0	0	49	110	455	350	21	35	
1	0	0	0	0	48	110	457	350	21	35	
2	0	0	0	0	39	105	460	350	21	35	
3	0	0	0	0	39	105	460	350	21	35	
4	0	0	0	0	35	105	460	350	21	35	
5	0	0	0	0	39	105	460	350	21	35	
6	0	0	0	0	44	108	460	350	21	35	
7	0	0	0	0	39	105	460	350	21	35	
8	0	0	0	0	39	105	460	350	21	35	
9	0	0	0	0	39	105	460	350	21	35	
10	0	0	0	0	39	108	460	350	21	35	
11	0	0	0	0	44	108	457	350	21	35	
12	0	0	0	0	39	105	457	350	21	35	
13	0	0	0	0	35	105	455	350	21	35	
14	0	0	0	0	39	105	455	350	21	35	
15	0	0	0	0	39	105	455	350	21	35	
0	0	0	0	0	39	105	455	350	21	35	
1	0	0	0	0	39	105	455	350	21	35	
2	0	0	0	0	39	105	455	350	21	35	
3	0	0	0	0	35	107	455	350	21	35	
4	0	0	0	0	39	108	457	350	21	35	
5	0	0	0	0	35	107	460	350	21	35	
6	0	0	0	0	44	108	460	350	21	35	
7	0	0	0	0	39	108	460	350	21	35	
8	0	0	0	0	39	108	460	352	21	35	
9	0	0	0	0	39	108	462	352	21	35	
10	0	0	0	0	39	108	462	350	21	35	
11	0	0	0	0	39	103	462	350	21	35	
12	0	0	0	0	39	108	462	350	21	35	
13	0	0	0	0	49	111	462	350	21	35	
14	0	0	0	0	39	108	462	350	21	35	
15	0	0	0	0	35	107	460	350	21	35	
0	0	0	0	0	39	108	460	350	21	35	
1	0	0	0	0	44	108	460	350	21	35	
2	0	0	0	0	44	108	460	350	21	35	
3	0	0	0	0	44	108	460	350	21	35	
4	0	0	0	0	39	108	460	350	21	35	
5	0	0	0	0	44	108	460	352	21	35	
6	0	0	0	0	39	108	462	352	21	35	
7	0	0	0	0	39	108	462	352	21	35	
8	0	0	0	0	49	112	463	352	21	35	
9	0	0	0	0	39	108	463	352	21	35	
10	0	0	0	0	44	108	463	352	21	35	
11	0	0	0	0	49	112	463	352	21	35	
12	0	0	0	0	44	110	463	352	21	35	
13	0	0	0	0	35	108	463	352	21	35	
14	0	0	0	0	39	108	463	352	21	35	
15	0	0	0	0	39	108	463	352	21	35	
0	0	0	0	0	39	108	463	352	21	35	
1	0	0	0	0	39	108	463	352	21	35	
2	0	0	0	0	39	108	463	352	21	35	
3	0	0	0	0	31	111	463	352	21	35	
4	0	0	0	0	39	108	463	352	21	35	
5	0	0	0	0	49	112	463	352	21	35	
6	0	0	0	0	39	108	463	352	21	35	
7	0	0	0	0	39	108	463	352	22	35	
8	0	0	0	0	44	110	463	352	22	35	
9	0	0	0	0	39	108	465	352	21	35	
10	0	0	0	0	39	108	465	352	22	35	
11	0	0	0	0	44	110	467	352	22	35	
12	0	0	0	0	39	108	467	352	22	35	
13	0	0	0	0	44	110	467	352	22	35	
14	0	0	0	0	39	110	470	352	22	35	
15	0	0	0	0	39	108	472	352	22	35	
0	0	0	0	0	39	108	472	352	22	35	
1	0	0	0	0	35	108	472	352	22	35	
2	0	0	0	0	44	110	472	352	22	35	
3	0	0	0	0	39	108	472	352	22	35	
4	0	0	0	0	39	108	472	352	22	35	
5	0	0	0	0	39	108	472	352	22	35	
6	0	0	0	0	39	108	472	352	22	35	
7	0	0	0	0	35	108	470	352	22	35	
8	0	0	0	0	44	110	468	352	22	35	
9	0	0	0	0	39	108	467	352	22	35	
10	0	0	0	0	39	108	467	352	22	35	
11	0	0	0	0	35	108	467	352	22	35	
12	0	0	0	0	39	108	467	352	22	35	
13	0	0	0	0	44	110	467	352	22	35	
14	0	0	0	0	44	111	468	352	22	35	
15	0	0	0	0	39	108	472	352	22	35	
0	0	0	0	0	39	108	472	352	22	35	
1	0	0	0	0	39	108	472	352	22	35	
2	0	0	0	0	39	110	472	352	22	35	
3	0	0	0	0	39	112	472	352	22	35	
4	0	0	0	0	44	112	472	352	22	35	
5	0	0	0	0	39	110	473	352	22	35	
6	0	0	0	0	35	110	473	352	22	35	
7	0	0	0	0	39	110	473	352	22	35	
8	0	0	0	0	39	110	473	352	22	35	
9	0	0	0	0	39	110	473	352	22	35	
10	0	0	0	0	39	110	473	352	22	35	
11	0	0	0	0	49	112	473	352	22	35	
12	0	0	0	0	39	110	473	352	22	35	
13	0	0	0	0	39	110	472	352	22	35	
14	0	0	0	0	39	110	472	352	22	35	
15	0	0	0	0	35	110	472	352	22	35	
0	0	0	0	0	35	110	472	352	22	35	
1	0	0	0	0	44	112	473	352	22	35	
2	0	0	0	0	44	112	473	352	22	35	
3	0	0	0	0	44	112	476	352	22	35	
4	0	0	0	0	39	110	476	352	22	35	
5	0	0	0	0	44	112	476	352	22	35	
6	0	0	0	0	39	110	476	352	22	35	
7	0	0	0	0	39	110	478	352	22	35	
8	0	0	0	0	49	112	478	352	22	35	
9	0	0	0	0	39	110	480	352	22	35	
10	0	0	0	0	44	112	480	352	22	35	
11	0	0	0	0	49	112	480	352	22	35	
12	0	0	0	0	44	112	480	352	22	35	
13	0	0	0	0	35	110	480	352	22	35	
14	0	0	0	0	39	110	478	352	22	35	
15	0	0	0	0	39	110	478	352	22	35	
0	0	0	0	0	39	110	476	352	22	35	
1	0	0	0	0	39	110	476	352	22	35	
2	0	0	0	0	39	110	476	352	22	35	
3	0	0	0	0	31	112	476	352	22	35	
4	0	0	0	0	39	110	476	352	22	35	
5	0	0	0	0	46	112	476	352	22	35	
6	0	0	0	0	35	110	476	352	22	35	
7	0	0	0	0	39	110	476	352	22	35	
8	0	0	0	0	39	110	478	352	22	35	
9	0	0	0	0	39	110	480	352	22	35	
10	0	0	0	0	39	110	480	352	22	35	
11	0	0	0	0	46	112	480	352	22	35	
12	0	0	0	0	46	112	480	352	22	35	
13	0	0	0	0	39	110	480	352	22	35	
14	0	0	0	0	49	113	480	352	22	35	
15	0	0	0	0	39	108	480	352	22	35	
0	0	0	0	0	39	110	480	352	22	35	
1	0	0	0	0	39	110	480	352	22	35	
2	0	0	0	0	39	110	480	352	22	35	
3	0	0	0	0	39	110	480	352	22	35	
4	0	0	0	0	39	110	480	352	22	35	
5	0	0	0	0	39	110	480	352	22	35	
6	0	0	0	0	49	113	480	352	22	35	
7	0	0	0	0	39	110	480	352	22	35	
8	0	0	0	0	39	110	480	352	22	35	
9	0	0	0	0	39	110	480	352	22	35	
10	0	0	0	0	39	110	480	352	22	35	
11	0	0	0	0	36	110	480	352	22	35	
12	0	0	0	0	46	112	480	352	22	35	
13	0	0	0	0	39	110	480	352	22	35	
14	0	0	0	0	39	110	480	352	22	35	
15	0	0	0	0	39	110	480	352	22	35	
0	0	0	0	0	39	110	480	352	22	35	
1	0	0	0	0	46	112	480	352	22	35	
2	0	0	0	0	39	110	480	352	22	35	
3	0	0	0	0	39	112	480	352	22	35	
4	0	0	0	0	49	113	480	352	22	35	
5	0	0	0	0	39	110	480	352	22	35	
6	0	0	0	0	49	113	480	352	22	35	
7	0	0	0	0	39	110	480	352	22	35	
8	0	0	0	0	39	110	480	352	22	35	
9	0	0	0	0	39	110	480	352	22	35	
10	0	0	0	0	46	112	480	352	22	35	
11	0	0	0	0	39	110	480	352	22	35	
12	0	0	0	0	39	110	480	352	22	35	
13	0	0	0	0	39	110	480	352	22	35	
14	0	0	0	0	44	112	480	352	22	35	
15	0	0	0	0	39	110	480	352	22	35	
0	0	0	0	0	46	112	480	352	22	35	
1	0	0	0	0	49	113	481	352	22	35	
2	0	0	0	0	39	111	481	352	22	35	
3	0	0	0	0	39	111	481	352	22	35	
4	0	0	0	0	39	111	483	352	22	35	
5	0	0	0	0	46	112	483	352	22	35	
6	0	0	0	0	39	111	483	352	22	35	
7	0	0	0	0	46	112	483	352	22	35	
8	0	0	0	0	39	111	481	352	22	35	
9	0	0	0	0	39	111	481	352	22	35	
10	0	0	0	0	39	111	481	352	22	35	
11	0	0	0	0	39	111	480	352	22	35	
12	0	0	0	0	39	111	480	352	22	35	
13	0	0	0	0	46	112	480	352	22	35	
14	0	0	0	0	46	112	480	352	22	35	
15	0	0	0	0	39	111	480	352	22	35	
0	0	0	0	0	46	112	480	352	22	35	
1	0	0	0	0	39	111	480	352	22	35	
2	0	0	0	0	46	112	480	352	22	35	
3	0	0	0	0	46	112	480	352	22	35	
4	0	0	0	0	39	111	480	352	22	35	
5	0	0	0	0	39	111	480	352	22	35	
6	0	0	0	0	39	111	480	352	22	35	
7	0	0	0	0	39	111	481	352	22	35	
8	0	0	0	0	46	112	481	352	22	35	
9	0	0	0	0	39	111	481	352	22	35	
10	0	0	0	0	39	111	481	352	22	35	
11	0	0	0	0	46	112	481	352	22	35	
12	0	0	0	0	49	113	480	352	22	35	
13	0	0	0	0	46	112	480	352	22	35	
14	0	0	0	0	44	112	480	352	22	35	
15	0	0	0	0	39	111	480	352	22	35	
0	0	0	0	0	46	112	480	352	22	35	
1	0	0	0	0	36	111	480	352	22	35	
2	0	0	0	0	46	112	480	352	22	35	
3	0	0	0	0	39	111	480	352	22	35	
4	0	0	0	0	46	112	480	352	22	35	
5	0	0	0	0	39	111	480	352	22	35	
6	0	0	0	0	39	112	480	352	22	35	
7	0	0	0	0	46	112	480	352	22	35	
8	0	0	0	0	39	112	480	352	22	35	
9	0	0	0	0	46	112	481	352	22	35	
10	0	0	0	0	39	112	481	352	22	35	
11	0	0	0	0	49	113	483	352	22	35	
12	0	0	0	0	39	112	483	352	22	35	
13	0	0	0	0	39	112	483	352	22	35	
14	0	0	0	0	49	113	483	353	22	35	
15	0	0	0	0	39	112	483	353	22	35	
0	0	0	0	0	46	112	483	353	22	35	
1	0	0	0	0	39	112	483	352	22	35	
2	0	0	0	0	46	112	481	352	22	35	
3	0	0	0	0	46	112	481	352	22	35	
4	0	0	0	0	46	112	481	352	22	35	
