# OpenSignals Text File Format. Version 1
# {"98:D3:31:B2:BC:63": {"sensor": ["RAW", "RAW", "RAW", "RAW", "RAW", "RAW"], "device name": "98:D3:31:B2:BC:63", "column": ["nSeq", "I1", "I2", "I3", "I4", "A1", "A2", "A3", "A4", "A5", "A6"], "sync interval": 2, "time": "12:19:22.784", "comments": "", "device connection": "/dev/tty.bitalino-DevB", "channels": [1, 2, 3, 4, 5, 6], "keywords": "", "convertedValues": 0, "mode": 0, "digital IO": [0, 0, 0, 0, 1, 1, 1, 1], "firmware version": 771, "device": "bitalino", "position": 0, "sampling rate": 1000, "label": ["A1", "A2", "A3", "A4", "A5", "A6"], "resolution": [4, 1, 1, 1, 1, 10, 10, 10, 10, 6, 6], "date": "2020-2-14", "special": [{}, {}, {}, {}, {}, {}]}}
# EndOfHeader
1	0	0	0	0	28	31	536	310	2	35	
2	0	0	0	0	28	31	536	310	2	35	
3	0	0	0	0	25	31	537	312	2	35	
4	0	0	0	0	28	31	540	312	2	35	
5	0	0	0	0	28	31	540	310	2	35	
6	0	0	0	0	28	31	542	310	2	35	
7	0	0	0	0	28	31	542	310	2	35	
8	0	0	0	0	28	31	542	312	2	35	
9	0	0	0	0	28	31	542	312	2	35	
10	0	0	0	0	28	31	543	312	2	35	
11	0	0	0	0	28	31	543	312	2	35	
12	0	0	0	0	28	31	543	312	2	35	
13	0	0	0	0	28	31	543	312	2	35	
14	0	0	0	0	28	33	543	312	2	35	
15	0	0	0	0	28	31	543	312	2	35	
0	0	0	0	0	28	31	547	312	2	35	
1	0	0	0	0	28	33	547	312	2	35	
2	0	0	0	0	28	31	550	312	2	35	
3	0	0	0	0	28	31	551	312	2	35	
4	0	0	0	0	28	31	551	312	2	35	
5	0	0	0	0	28	31	551	312	2	35	
6	0	0	0	0	28	31	551	312	2	35	
7	0	0	0	0	28	33	553	312	2	35	
8	0	0	0	0	28	33	556	312	2	35	
9	0	0	0	0	28	31	556	312	2	35	
10	0	0	0	0	28	31	556	312	2	35	
11	0	0	0	0	28	31	556	312	2	35	
12	0	0	0	0	28	31	556	312	2	35	
13	0	0	0	0	28	33	553	312	2	35	
14	0	0	0	0	28	31	553	312	2	35	
15	0	0	0	0	28	31	553	312	2	35	
0	0	0	0	0	28	31	551	312	2	35	
1	0	0	0	0	28	33	551	312	2	35	
2	0	0	0	0	28	31	553	312	2	35	
3	0	0	0	0	28	31	553	312	2	35	
4	0	0	0	0	28	31	553	312	2	35	
5	0	0	0	0	28	33	556	312	2	35	
6	0	0	0	0	28	31	556	312	2	35	
7	0	0	0	0	30	35	556	312	2	35	
8	0	0	0	0	28	33	556	312	2	35	
9	0	0	0	0	28	31	556	312	2	35	
10	0	0	0	0	28	33	556	312	2	35	
11	0	0	0	0	28	31	558	312	2	35	
12	0	0	0	0	28	33	556	312	2	35	
13	0	0	0	0	28	33	556	312	2	35	
14	0	0	0	0	25	33	556	312	2	35	
15	0	0	0	0	28	31	556	312	2	35	
0	0	0	0	0	28	31	556	312	2	35	
1	0	0	0	0	28	33	556	312	2	35	
2	0	0	0	0	28	31	556	312	2	35	
3	0	0	0	0	28	31	556	312	2	35	
4	0	0	0	0	28	31	556	312	2	35	
5	0	0	0	0	28	33	556	310	2	35	
6	0	0	0	0	28	31	556	308	2	35	
7	0	0	0	0	28	33	556	307	2	35	
8	0	0	0	0	28	31	556	307	2	35	
9	0	0	0	0	28	31	556	307	2	35	
10	0	0	0	0	28	31	556	307	2	35	
11	0	0	0	0	28	33	556	305	2	35	
12	0	0	0	0	28	31	556	305	2	35	
13	0	0	0	0	25	31	556	305	2	35	
14	0	0	0	0	28	31	556	304	2	35	
15	0	0	0	0	28	31	556	304	2	35	
0	0	0	0	0	28	31	556	304	2	35	
1	0	0	0	0	28	31	556	304	2	35	
2	0	0	0	0	28	31	553	304	2	35	
3	0	0	0	0	25	31	551	304	2	35	
4	0	0	0	0	25	31	551	304	2	35	
5	0	0	0	0	27	31	551	304	2	35	
6	0	0	0	0	25	31	551	304	2	35	
7	0	0	0	0	28	33	551	304	2	35	
8	0	0	0	0	28	31	551	305	2	35	
9	0	0	0	0	28	31	551	305	2	35	
10	0	0	0	0	28	31	551	305	2	35	
11	0	0	0	0	28	31	551	307	2	35	
12	0	0	0	0	28	31	551	307	2	35	
13	0	0	0	0	28	33	551	307	2	35	
14	0	0	0	0	25	31	551	307	2	35	
15	0	0	0	0	28	31	551	307	2	35	
0	0	0	0	0	28	31	553	310	2	35	
1	0	0	0	0	28	31	553	310	2	35	
2	0	0	0	0	28	33	553	310	2	35	
3	0	0	0	0	28	33	556	312	2	35	
4	0	0	0	0	28	33	556	312	2	35	
5	0	0	0	0	28	33	556	312	2	35	
6	0	0	0	0	28	33	553	312	2	35	
7	0	0	0	0	27	31	553	312	2	35	
8	0	0	0	0	28	31	551	312	2	35	
9	0	0	0	0	25	31	551	312	2	35	
10	0	0	0	0	28	31	551	312	2	35	
11	0	0	0	0	28	31	551	312	2	35	
12	0	0	0	0	28	31	551	312	2	35	
13	0	0	0	0	28	31	551	312	2	35	
14	0	0	0	0	28	31	551	312	2	35	
15	0	0	0	0	28	31	551	312	2	35	
0	0	0	0	0	28	31	551	312	2	35	
1	0	0	0	0	28	33	551	312	2	35	
2	0	0	0	0	28	33	551	312	2	35	
3	0	0	0	0	28	31	551	312	2	35	
4	0	0	0	0	28	33	551	312	2	35	
5	0	0	0	0	28	33	551	312	2	35	
6	0	0	0	0	28	31	551	312	2	35	
7	0	0	0	0	28	33	551	312	2	35	
8	0	0	0	0	28	31	551	312	2	35	
9	0	0	0	0	30	35	551	312	2	35	
10	0	0	0	0	28	31	550	312	2	35	
11	0	0	0	0	28	31	547	312	2	35	
12	0	0	0	0	28	31	547	312	2	35	
13	0	0	0	0	28	31	547	312	2	35	
14	0	0	0	0	28	33	545	312	2	35	
15	0	0	0	0	28	31	543	312	2	35	
0	0	0	0	0	28	31	543	312	2	35	
1	0	0	0	0	28	31	543	312	2	35	
2	0	0	0	0	28	31	543	312	2	35	
3	0	0	0	0	28	31	543	312	2	35	
4	0	0	0	0	28	33	543	312	2	35	
5	0	0	0	0	28	31	543	312	2	35	
6	0	0	0	0	28	31	543	312	2	35	
7	0	0	0	0	28	31	543	312	2	35	
8	0	0	0	0	28	31	543	312	2	35	
9	0	0	0	0	28	31	543	312	2	35	
10	0	0	0	0	28	31	543	312	2	35	
11	0	0	0	0	28	31	543	312	2	35	
12	0	0	0	0	28	31	543	312	2	35	
13	0	0	0	0	28	31	543	312	2	35	
14	0	0	0	0	28	33	543	312	2	35	
15	0	0	0	0	28	31	543	312	2	35	
0	0	0	0	0	28	31	543	312	2	35	
1	0	0	0	0	28	33	543	312	2	35	
2	0	0	0	0	28	31	542	312	2	35	
3	0	0	0	0	28	31	542	312	2	35	
4	0	0	0	0	28	35	542	312	2	35	
5	0	0	0	0	28	33	542	312	2	35	
6	0	0	0	0	28	33	542	312	2	35	
7	0	0	0	0	28	31	542	312	2	35	
8	0	0	0	0	30	35	542	312	2	35	
9	0	0	0	0	28	31	542	312	2	35	
10	0	0	0	0	28	31	543	312	2	35	
11	0	0	0	0	28	31	543	312	2	35	
12	0	0	0	0	28	31	543	312	2	35	
13	0	0	0	0	28	31	543	310	2	35	
14	0	0	0	0	25	31	543	310	2	35	
15	0	0	0	0	28	31	543	307	2	35	
0	0	0	0	0	28	35	543	307	2	35	
1	0	0	0	0	27	31	543	307	2	35	
2	0	0	0	0	28	33	542	307	2	35	
3	0	0	0	0	28	33	542	307	2	35	
4	0	0	0	0	28	31	542	307	2	35	
5	0	0	0	0	28	33	540	307	2	35	
6	0	0	0	0	28	31	540	307	2	35	
7	0	0	0	0	28	31	540	307	2	35	
8	0	0	0	0	28	31	540	307	2	35	
9	0	0	0	0	28	31	540	307	2	35	
10	0	0	0	0	28	31	540	307	2	35	
11	0	0	0	0	28	33	540	307	2	35	
12	0	0	0	0	28	31	540	307	2	35	
13	0	0	0	0	28	31	540	307	2	35	
14	0	0	0	0	28	31	542	307	2	35	
15	0	0	0	0	28	31	542	307	2	35	
0	0	0	0	0	28	31	543	307	2	35	
1	0	0	0	0	28	31	543	307	2	35	
2	0	0	0	0	28	33	543	307	2	35	
3	0	0	0	0	28	31	543	307	2	35	
4	0	0	0	0	28	31	542	310	2	35	
5	0	0	0	0	28	31	542	310	2	35	
6	0	0	0	0	28	33	540	310	2	35	
7	0	0	0	0	28	33	540	312	2	35	
8	0	0	0	0	28	31	537	312	2	35	
9	0	0	0	0	28	31	536	312	2	35	
10	0	0	0	0	28	31	536	312	2	35	
11	0	0	0	0	28	33	536	312	2	35	
12	0	0	0	0	28	31	536	312	2	35	
13	0	0	0	0	28	31	536	312	2	35	
14	0	0	0	0	28	33	536	312	2	35	
15	0	0	0	0	28	31	536	312	2	35	
0	0	0	0	0	28	31	536	312	2	35	
1	0	0	0	0	28	33	536	312	2	35	
2	0	0	0	0	28	31	536	312	2	35	
3	0	0	0	0	28	31	536	312	2	35	
4	0	0	0	0	28	33	536	312	2	35	
5	0	0	0	0	28	31	537	312	2	35	
6	0	0	0	0	28	31	537	312	2	35	
7	0	0	0	0	28	33	537	312	2	35	
8	0	0	0	0	28	31	537	312	2	35	
9	0	0	0	0	28	31	537	312	2	35	
10	0	0	0	0	28	31	537	312	2	35	
11	0	0	0	0	28	31	536	312	2	35	
12	0	0	0	0	28	33	536	312	2	35	
13	0	0	0	0	28	31	536	312	2	35	
14	0	0	0	0	28	31	536	312	2	35	
15	0	0	0	0	30	33	536	312	2	35	
0	0	0	0	0	28	31	536	312	2	35	
1	0	0	0	0	28	31	536	312	2	35	
2	0	0	0	0	28	33	536	312	2	35	
3	0	0	0	0	25	31	536	312	2	35	
4	0	0	0	0	28	31	536	312	2	35	
5	0	0	0	0	28	31	536	312	2	35	
6	0	0	0	0	25	31	536	312	2	35	
7	0	0	0	0	28	31	536	312	2	35	
8	0	0	0	0	28	31	536	312	2	35	
9	0	0	0	0	28	31	536	312	2	35	
10	0	0	0	0	28	31	536	312	2	35	
11	0	0	0	0	28	31	536	312	2	35	
12	0	0	0	0	28	31	536	312	2	35	
13	0	0	0	0	28	31	536	312	2	35	
14	0	0	0	0	25	31	536	312	2	35	
15	0	0	0	0	28	31	536	312	2	35	
0	0	0	0	0	28	31	536	312	2	35	
1	0	0	0	0	28	31	536	312	2	35	
2	0	0	0	0	28	31	536	312	2	35	
3	0	0	0	0	28	31	536	312	2	35	
4	0	0	0	0	28	31	536	312	2	35	
5	0	0	0	0	28	31	536	312	2	35	
6	0	0	0	0	28	31	536	312	2	35	
7	0	0	0	0	30	35	536	312	2	35	
8	0	0	0	0	28	33	536	312	2	35	
9	0	0	0	0	28	31	536	312	2	35	
10	0	0	0	0	28	31	537	312	2	35	
11	0	0	0	0	28	31	540	312	2	35	
12	0	0	0	0	28	31	540	310	2	35	
13	0	0	0	0	28	31	540	310	2	35	
14	0	0	0	0	28	31	540	308	2	35	
15	0	0	0	0	25	31	540	308	2	35	
0	0	0	0	0	28	31	540	308	2	35	
1	0	0	0	0	28	31	540	307	2	35	
2	0	0	0	0	28	33	540	308	2	35	
3	0	0	0	0	25	33	540	307	2	35	
4	0	0	0	0	28	31	540	307	2	35	
5	0	0	0	0	28	35	537	307	2	35	
6	0	0	0	0	25	31	537	307	2	35	
7	0	0	0	0	28	31	537	307	2	35	
8	0	0	0	0	28	31	537	307	2	35	
9	0	0	0	0	28	31	537	307	2	35	
10	0	0	0	0	28	31	537	307	2	35	
11	0	0	0	0	28	31	540	307	2	35	
12	0	0	0	0	28	31	540	307	2	35	
13	0	0	0	0	28	31	540	305	2	35	
14	0	0	0	0	25	31	540	307	2	35	
15	0	0	0	0	28	31	540	305	2	35	
0	0	0	0	0	28	31	540	305	2	35	
1	0	0	0	0	28	33	542	305	2	35	
2	0	0	0	0	28	33	542	305	2	35	
3	0	0	0	0	28	31	542	305	2	35	
4	0	0	0	0	28	31	542	307	2	35	
5	0	0	0	0	28	31	540	307	2	35	
6	0	0	0	0	28	31	540	307	2	35	
7	0	0	0	0	28	31	540	307	2	35	
8	0	0	0	0	28	33	540	307	2	35	
9	0	0	0	0	28	31	537	307	2	35	
10	0	0	0	0	28	31	537	307	2	35	
11	0	0	0	0	28	31	536	310	2	35	
12	0	0	0	0	28	31	536	310	2	35	
13	0	0	0	0	28	31	536	310	2	35	
14	0	0	0	0	28	31	536	312	2	35	
15	0	0	0	0	28	31	536	312	2	35	
0	0	0	0	0	28	31	536	312	2	35	
1	0	0	0	0	28	31	536	312	2	35	
2	0	0	0	0	28	31	536	312	2	35	
3	0	0	0	0	25	31	536	312	2	35	
4	0	0	0	0	28	31	536	312	2	35	
5	0	0	0	0	28	31	536	312	2	35	
6	0	0	0	0	28	31	536	312	2	35	
7	0	0	0	0	28	31	536	312	2	35	
8	0	0	0	0	28	31	536	312	2	35	
9	0	0	0	0	28	31	536	312	2	35	
10	0	0	0	0	28	31	536	312	2	35	
11	0	0	0	0	28	31	536	312	2	35	
12	0	0	0	0	28	31	536	312	2	35	
13	0	0	0	0	28	33	536	312	2	35	
14	0	0	0	0	25	33	536	312	2	35	
15	0	0	0	0	28	31	536	312	2	35	
0	0	0	0	0	28	31	536	312	2	35	
1	0	0	0	0	28	33	536	312	2	35	
2	0	0	0	0	28	31	536	312	2	35	
3	0	0	0	0	28	33	536	312	2	35	
4	0	0	0	0	28	31	536	312	2	35	
5	0	0	0	0	28	31	536	312	2	35	
6	0	0	0	0	30	35	536	312	2	35	
7	0	0	0	0	28	31	536	310	2	35	
8	0	0	0	0	28	33	536	310	2	35	
9	0	0	0	0	25	31	536	310	2	35	
10	0	0	0	0	25	31	536	308	2	35	
11	0	0	0	0	28	31	536	308	2	35	
12	0	0	0	0	28	31	536	307	2	35	
13	0	0	0	0	28	31	536	307	2	35	
14	0	0	0	0	28	31	536	307	2	35	
15	0	0	0	0	28	31	534	307	2	35	
0	0	0	0	0	28	31	531	307	2	35	
1	0	0	0	0	28	34	531	307	2	35	
2	0	0	0	0	28	31	531	307	2	35	
3	0	0	0	0	25	31	531	307	2	35	
4	0	0	0	0	28	31	529	307	2	35	
5	0	0	0	0	25	31	529	307	2	35	
6	0	0	0	0	28	31	531	307	2	35	
7	0	0	0	0	28	31	531	308	2	35	
8	0	0	0	0	28	31	531	310	2	35	
9	0	0	0	0	28	31	531	310	2	35	
10	0	0	0	0	28	31	531	310	2	35	
11	0	0	0	0	28	31	534	310	2	35	
12	0	0	0	0	28	31	536	312	2	35	
13	0	0	0	0	28	33	536	312	2	35	
14	0	0	0	0	25	31	536	312	2	35	
15	0	0	0	0	28	31	536	312	2	35	
0	0	0	0	0	28	31	536	312	2	35	
1	0	0	0	0	28	35	536	312	2	35	
2	0	0	0	0	28	31	534	312	2	35	
3	0	0	0	0	28	31	532	312	2	35	
4	0	0	0	0	28	31	531	312	2	35	
5	0	0	0	0	28	33	531	312	2	35	
6	0	0	0	0	28	33	531	312	2	35	
7	0	0	0	0	28	31	531	312	2	35	
8	0	0	0	0	28	33	529	312	2	35	
9	0	0	0	0	28	31	529	312	2	35	
10	0	0	0	0	28	31	531	312	2	35	
11	0	0	0	0	28	31	531	312	2	35	
12	0	0	0	0	28	31	531	312	2	35	
13	0	0	0	0	28	31	531	312	2	35	
14	0	0	0	0	28	31	531	312	2	35	
15	0	0	0	0	28	31	531	310	2	35	
0	0	0	0	0	28	31	534	310	2	35	
1	0	0	0	0	28	33	534	310	2	35	
2	0	0	0	0	28	31	536	307	2	35	
3	0	0	0	0	28	31	536	307	2	35	
4	0	0	0	0	28	31	536	307	2	35	
5	0	0	0	0	28	31	534	307	2	35	
6	0	0	0	0	28	31	531	307	2	35	
7	0	0	0	0	28	31	531	307	2	35	
8	0	0	0	0	28	31	531	307	2	35	
9	0	0	0	0	28	31	529	307	2	35	
10	0	0	0	0	28	31	529	307	2	35	
11	0	0	0	0	28	31	527	307	2	35	
12	0	0	0	0	28	31	527	307	2	35	
13	0	0	0	0	28	31	527	307	2	35	
14	0	0	0	0	25	31	527	307	2	35	
15	0	0	0	0	28	31	527	307	2	35	
0	0	0	0	0	28	31	527	307	2	35	
1	0	0	0	0	28	33	527	310	2	35	
2	0	0	0	0	28	33	527	310	2	35	
3	0	0	0	0	28	31	527	310	2	35	
4	0	0	0	0	28	31	527	310	2	35	
5	0	0	0	0	28	31	527	310	2	35	
6	0	0	0	0	28	31	526	310	2	35	
7	0	0	0	0	28	31	526	310	2	35	
8	0	0	0	0	28	31	524	312	2	35	
9	0	0	0	0	25	31	524	312	2	35	
10	0	0	0	0	28	31	521	312	2	35	
11	0	0	0	0	28	33	519	312	2	35	
12	0	0	0	0	28	33	519	312	2	35	
13	0	0	0	0	28	31	519	312	2	35	
14	0	0	0	0	28	31	519	312	2	35	
15	0	0	0	0	28	31	519	312	2	35	
0	0	0	0	0	25	31	519	312	2	35	
1	0	0	0	0	28	31	519	312	2	35	
2	0	0	0	0	28	31	519	312	2	35	
3	0	0	0	0	28	33	519	312	2	35	
4	0	0	0	0	28	31	519	312	2	35	
5	0	0	0	0	28	31	519	312	2	35	
6	0	0	0	0	28	31	519	312	2	35	
7	0	0	0	0	28	33	521	312	2	35	
8	0	0	0	0	28	31	523	312	2	35	
9	0	0	0	0	28	31	524	312	2	35	
10	0	0	0	0	28	31	521	312	2	35	
11	0	0	0	0	28	31	521	312	2	35	
12	0	0	0	0	28	33	519	312	2	35	
13	0	0	0	0	28	31	519	312	2	35	
14	0	0	0	0	28	33	519	312	2	35	
15	0	0	0	0	28	31	519	312	2	35	
0	0	0	0	0	28	31	518	312	2	35	
1	0	0	0	0	28	31	515	312	2	35	
2	0	0	0	0	28	33	515	312	2	35	
3	0	0	0	0	28	31	513	312	2	35	
4	0	0	0	0	28	33	513	312	2	35	
5	0	0	0	0	28	31	513	312	2	35	
6	0	0	0	0	28	31	513	312	2	35	
7	0	0	0	0	28	33	512	312	2	35	
8	0	0	0	0	28	31	513	312	2	35	
9	0	0	0	0	28	31	513	312	2	35	
10	0	0	0	0	28	31	513	312	2	35	
11	0	0	0	0	28	33	513	312	2	35	
12	0	0	0	0	28	31	513	312	2	35	
13	0	0	0	0	28	31	512	312	2	35	
14	0	0	0	0	25	31	512	312	2	35	
15	0	0	0	0	28	31	512	312	2	35	
0	0	0	0	0	25	31	511	312	2	35	
1	0	0	0	0	28	31	510	312	2	35	
2	0	0	0	0	28	31	508	312	2	35	
3	0	0	0	0	28	31	508	312	2	35	
4	0	0	0	0	28	33	508	312	2	35	
5	0	0	0	0	28	31	505	312	2	35	
6	0	0	0	0	28	31	504	312	2	35	
7	0	0	0	0	28	31	504	312	2	35	
8	0	0	0	0	28	31	504	312	2	35	
9	0	0	0	0	28	31	504	312	2	35	
10	0	0	0	0	28	31	504	312	2	35	
11	0	0	0	0	28	31	505	312	2	35	
12	0	0	0	0	28	31	508	312	2	35	
13	0	0	0	0	28	31	508	310	2	35	
14	0	0	0	0	28	33	510	310	2	35	
15	0	0	0	0	28	31	511	308	2	35	
0	0	0	0	0	25	31	512	307	2	35	
1	0	0	0	0	28	33	513	307	2	35	
2	0	0	0	0	28	31	515	307	2	35	
3	0	0	0	0	25	31	516	307	2	35	
4	0	0	0	0	28	31	519	307	2	35	
5	0	0	0	0	28	31	519	307	2	35	
6	0	0	0	0	28	31	519	307	2	35	
7	0	0	0	0	28	31	519	307	2	35	
8	0	0	0	0	28	31	519	307	2	35	
9	0	0	0	0	28	31	523	307	2	35	
10	0	0	0	0	28	31	524	307	2	35	
11	0	0	0	0	25	31	526	307	2	35	
12	0	0	0	0	28	31	527	307	2	35	
13	0	0	0	0	28	31	527	307	2	35	
14	0	0	0	0	28	31	529	307	2	35	
15	0	0	0	0	28	31	531	307	2	35	
0	0	0	0	0	28	31	536	307	2	35	
1	0	0	0	0	28	31	536	307	2	35	
2	0	0	0	0	28	33	536	307	2	35	
3	0	0	0	0	25	31	540	307	2	35	
4	0	0	0	0	28	31	540	307	2	35	
5	0	0	0	0	28	31	542	307	2	35	
6	0	0	0	0	28	31	542	307	2	35	
7	0	0	0	0	25	31	542	307	2	35	
8	0	0	0	0	28	33	542	308	2	35	
9	0	0	0	0	28	31	540	310	2	35	
10	0	0	0	0	28	31	540	310	2	35	
11	0	0	0	0	28	31	540	310	2	35	
12	0	0	0	0	28	31	537	310	2	35	
13	0	0	0	0	28	31	536	312	2	35	
14	0	0	0	0	25	31	536	312	2	35	
15	0	0	0	0	28	31	536	312	2	35	
0	0	0	0	0	28	31	536	312	2	35	
1	0	0	0	0	28	33	534	312	2	35	
2	0	0	0	0	28	31	534	312	2	35	
3	0	0	0	0	28	31	534	312	2	35	
4	0	0	0	0	28	31	534	312	2	35	
5	0	0	0	0	28	31	536	312	2	35	
6	0	0	0	0	28	31	536	312	2	35	
7	0	0	0	0	28	31	536	312	2	35	
8	0	0	0	0	28	31	536	312	2	35	
9	0	0	0	0	25	31	536	312	2	35	
10	0	0	0	0	28	31	536	312	2	35	
11	0	0	0	0	28	33	536	312	2	35	
12	0	0	0	0	28	31	536	312	2	35	
13	0	0	0	0	28	33	536	312	2	35	
14	0	0	0	0	28	31	536	312	2	35	
15	0	0	0	0	28	31	536	312	2	35	
0	0	0	0	0	28	31	536	312	2	35	
1	0	0	0	0	28	31	534	312	2	35	
2	0	0	0	0	28	31	531	312	2	35	
3	0	0	0	0	28	31	531	312	2	35	
4	0	0	0	0	28	31	531	312	2	35	
5	0	0	0	0	28	31	531	312	2	35	
6	0	0	0	0	28	31	531	312	2	35	
7	0	0	0	0	28	31	531	312	2	35	
8	0	0	0	0	28	31	531	312	2	35	
9	0	0	0	0	28	31	531	312	2	35	
10	0	0	0	0	28	31	532	312	2	35	
11	0	0	0	0	28	31	534	312	2	35	
12	0	0	0	0	28	31	536	312	2	35	
13	0	0	0	0	28	31	536	312	2	35	
14	0	0	0	0	25	31	536	312	2	35	
15	0	0	0	0	25	31	536	312	2	35	
0	0	0	0	0	28	31	536	312	2	35	
1	0	0	0	0	28	31	534	312	2	35	
2	0	0	0	0	28	33	531	312	2	35	
3	0	0	0	0	28	31	531	310	2	35	
4	0	0	0	0	28	31	531	312	2	35	
5	0	0	0	0	28	31	531	310	2	35	
6	0	0	0	0	28	31	529	312	2	35	
7	0	0	0	0	28	31	529	312	2	35	
8	0	0	0	0	28	31	529	312	2	35	
9	0	0	0	0	25	31	529	310	2	35	
10	0	0	0	0	28	31	529	310	2	35	
11	0	0	0	0	28	33	531	310	2	35	
12	0	0	0	0	28	35	531	310	2	35	
13	0	0	0	0	28	31	534	310	2	35	
14	0	0	0	0	28	31	536	310	2	35	
15	0	0	0	0	28	31	536	310	2	35	
0	0	0	0	0	28	31	540	310	2	35	
1	0	0	0	0	28	31	542	310	2	35	
2	0	0	0	0	28	31	543	310	2	35	
3	0	0	0	0	25	31	547	310	2	35	
4	0	0	0	0	28	31	550	310	2	35	
5	0	0	0	0	28	31	551	312	2	35	
6	0	0	0	0	28	33	551	312	2	35	
7	0	0	0	0	28	31	553	312	2	35	
8	0	0	0	0	28	31	553	312	2	35	
9	0	0	0	0	28	31	551	312	2	35	
10	0	0	0	0	28	31	551	312	2	35	
11	0	0	0	0	28	31	550	312	2	35	
12	0	0	0	0	30	35	543	312	2	35	
13	0	0	0	0	28	31	540	312	2	35	
14	0	0	0	0	25	33	536	312	2	35	
15	0	0	0	0	28	31	527	312	2	35	
0	0	0	0	0	25	31	518	312	2	35	
1	0	0	0	0	28	31	505	312	2	35	
2	0	0	0	0	28	31	494	312	2	35	
3	0	0	0	0	28	31	480	312	2	35	
4	0	0	0	0	30	35	462	312	2	35	
5	0	0	0	0	28	31	444	312	2	35	
6	0	0	0	0	28	31	423	312	2	35	
7	0	0	0	0	28	31	399	312	2	35	
8	0	0	0	0	24	31	376	312	2	35	
9	0	0	0	0	25	31	352	310	2	35	
10	0	0	0	0	25	30	327	310	2	35	
11	0	0	0	0	25	31	303	310	2	35	
12	0	0	0	0	28	31	280	310	2	35	
13	0	0	0	0	28	31	255	308	2	35	
14	0	0	0	0	28	31	233	307	2	35	
15	0	0	0	0	28	31	216	307	2	35	
0	0	0	0	0	28	31	199	307	2	35	
1	0	0	0	0	28	31	184	307	2	35	
2	0	0	0	0	28	31	174	307	2	35	
3	0	0	0	0	25	31	166	307	2	35	
4	0	0	0	0	28	31	159	307	2	35	
5	0	0	0	0	25	30	159	307	2	35	
6	0	0	0	0	25	31	163	307	2	35	
7	0	0	0	0	28	31	167	307	2	35	
8	0	0	0	0	28	31	179	307	2	35	
9	0	0	0	0	28	31	192	307	2	35	
10	0	0	0	0	28	31	207	307	2	35	
11	0	0	0	0	28	31	230	307	2	35	
12	0	0	0	0	28	31	252	307	2	35	
13	0	0	0	0	28	31	275	307	2	35	
14	0	0	0	0	25	31	302	307	2	35	
15	0	0	0	0	25	31	327	307	2	35	
0	0	0	0	0	25	31	353	307	2	35	
1	0	0	0	0	25	31	384	307	2	35	
2	0	0	0	0	30	35	408	307	2	35	
3	0	0	0	0	28	31	433	308	2	35	
4	0	0	0	0	28	31	455	310	2	35	
5	0	0	0	0	28	33	480	308	2	35	
6	0	0	0	0	28	31	499	308	2	35	
7	0	0	0	0	28	31	515	308	2	35	
8	0	0	0	0	28	31	531	307	2	35	
9	0	0	0	0	25	31	542	307	2	35	
10	0	0	0	0	28	35	550	307	2	35	
11	0	0	0	0	28	35	553	307	2	35	
12	0	0	0	0	28	31	556	307	2	35	
13	0	0	0	0	28	31	556	308	2	35	
14	0	0	0	0	28	31	551	308	2	35	
15	0	0	0	0	28	31	547	310	2	35	
0	0	0	0	0	28	33	542	310	2	35	
1	0	0	0	0	28	31	536	310	2	35	
2	0	0	0	0	30	35	527	310	2	35	
3	0	0	0	0	25	31	519	310	2	35	
4	0	0	0	0	28	33	513	312	2	35	
5	0	0	0	0	28	31	508	312	2	35	
6	0	0	0	0	28	33	504	312	2	35	
7	0	0	0	0	28	31	499	312	2	35	
8	0	0	0	0	28	31	497	312	2	35	
9	0	0	0	0	28	31	496	312	2	35	
10	0	0	0	0	28	33	496	312	2	35	
11	0	0	0	0	28	31	497	312	2	35	
12	0	0	0	0	28	31	499	312	2	35	
13	0	0	0	0	28	31	504	312	2	35	
14	0	0	0	0	28	35	504	312	2	35	
15	0	0	0	0	28	31	508	312	2	35	
0	0	0	0	0	28	31	512	312	2	35	
1	0	0	0	0	28	31	515	312	2	35	
2	0	0	0	0	28	31	519	312	2	35	
3	0	0	0	0	28	31	519	312	2	35	
4	0	0	0	0	28	31	524	312	2	35	
5	0	0	0	0	28	31	524	312	2	35	
6	0	0	0	0	25	31	526	312	2	35	
7	0	0	0	0	28	31	527	312	2	35	
8	0	0	0	0	28	35	527	312	2	35	
9	0	0	0	0	28	31	527	312	2	35	
10	0	0	0	0	28	31	527	312	2	35	
11	0	0	0	0	28	33	527	312	2	35	
12	0	0	0	0	28	31	527	312	2	35	
13	0	0	0	0	28	31	527	312	2	35	
14	0	0	0	0	28	33	527	316	2	35	
15	0	0	0	0	28	33	527	316	2	35	
0	0	0	0	0	28	31	527	316	2	35	
1	0	0	0	0	30	35	527	318	2	35	
2	0	0	0	0	28	33	527	318	2	35	
3	0	0	0	0	28	35	527	319	2	35	
4	0	0	0	0	28	33	527	318	2	35	
5	0	0	0	0	28	33	529	316	2	35	
6	0	0	0	0	25	33	529	313	2	35	
7	0	0	0	0	28	33	529	312	2	35	
8	0	0	0	0	28	31	529	312	2	35	
9	0	0	0	0	28	31	529	312	2	35	
10	0	0	0	0	28	31	527	310	2	35	
11	0	0	0	0	28	31	527	307	2	35	
12	0	0	0	0	28	31	527	307	2	35	
13	0	0	0	0	28	31	527	305	2	35	
14	0	0	0	0	25	31	527	305	2	35	
15	0	0	0	0	28	31	527	304	2	35	
0	0	0	0	0	25	31	527	304	2	35	
1	0	0	0	0	25	31	527	304	2	35	
2	0	0	0	0	28	31	527	304	2	35	
3	0	0	0	0	25	31	527	304	2	35	
4	0	0	0	0	28	31	527	303	2	35	
5	0	0	0	0	28	33	527	302	2	35	
6	0	0	0	0	28	31	527	302	2	35	
7	0	0	0	0	28	31	527	304	2	35	
8	0	0	0	0	28	31	527	304	2	35	
9	0	0	0	0	25	31	527	304	2	35	
10	0	0	0	0	28	31	527	304	2	35	
11	0	0	0	0	28	31	527	304	2	35	
12	0	0	0	0	28	31	527	304	2	35	
13	0	0	0	0	28	33	527	304	2	35	
14	0	0	0	0	28	31	527	305	2	35	
15	0	0	0	0	28	31	526	305	2	35	
0	0	0	0	0	28	31	524	307	2	35	
1	0	0	0	0	28	33	524	307	2	35	
2	0	0	0	0	28	31	521	307	2	35	
3	0	0	0	0	28	33	519	308	2	35	
4	0	0	0	0	28	33	519	310	2	35	
5	0	0	0	0	28	31	519	312	2	35	
6	0	0	0	0	28	33	519	312	2	35	
7	0	0	0	0	28	31	519	312	2	35	
8	0	0	0	0	28	31	519	312	2	35	
9	0	0	0	0	28	31	519	312	2	35	
10	0	0	0	0	28	33	519	312	2	35	
11	0	0	0	0	25	31	519	312	2	35	
12	0	0	0	0	28	31	519	312	2	35	
13	0	0	0	0	30	35	519	312	2	35	
14	0	0	0	0	25	31	519	312	2	35	
15	0	0	0	0	28	31	519	312	2	35	
0	0	0	0	0	28	31	519	312	2	35	
1	0	0	0	0	28	33	518	312	2	35	
2	0	0	0	0	28	31	515	312	2	35	
3	0	0	0	0	28	31	515	313	2	35	
4	0	0	0	0	28	31	515	313	2	35	
5	0	0	0	0	28	31	513	313	2	35	
6	0	0	0	0	28	31	512	313	2	35	
7	0	0	0	0	28	33	512	313	2	35	
8	0	0	0	0	24	31	512	312	2	35	
9	0	0	0	0	28	31	511	312	2	35	
10	0	0	0	0	28	31	511	312	2	35	
11	0	0	0	0	28	35	511	312	2	35	
12	0	0	0	0	28	31	511	312	2	35	
13	0	0	0	0	28	31	512	312	2	35	
14	0	0	0	0	28	31	512	312	2	35	
15	0	0	0	0	28	31	512	312	2	35	
0	0	0	0	0	28	31	512	312	2	35	
1	0	0	0	0	28	31	511	310	2	35	
2	0	0	0	0	28	31	511	310	2	35	
3	0	0	0	0	25	31	510	310	2	35	
4	0	0	0	0	28	33	508	310	2	35	
5	0	0	0	0	28	31	508	310	2	35	
6	0	0	0	0	28	33	505	310	2	35	
7	0	0	0	0	28	31	504	310	2	35	
8	0	0	0	0	28	31	504	307	2	35	
9	0	0	0	0	28	31	502	308	2	35	
10	0	0	0	0	28	31	499	307	2	35	
11	0	0	0	0	25	31	497	307	2	35	
12	0	0	0	0	28	31	496	307	2	35	
13	0	0	0	0	28	31	496	307	2	35	
14	0	0	0	0	28	33	496	307	2	35	
15	0	0	0	0	25	31	496	307	2	35	
0	0	0	0	0	28	31	496	307	2	35	
1	0	0	0	0	28	31	495	307	2	35	
2	0	0	0	0	28	31	494	308	2	35	
3	0	0	0	0	28	31	494	310	2	35	
4	0	0	0	0	25	31	494	310	2	35	
5	0	0	0	0	28	31	494	310	2	35	
6	0	0	0	0	28	31	492	312	2	35	
7	0	0	0	0	28	31	492	312	2	35	
8	0	0	0	0	28	31	492	312	2	35	
9	0	0	0	0	28	31	487	312	2	35	
10	0	0	0	0	28	33	487	312	2	35	
11	0	0	0	0	25	31	487	312	2	35	
12	0	0	0	0	28	31	487	312	2	35	
13	0	0	0	0	28	31	486	312	2	35	
14	0	0	0	0	28	31	483	312	2	35	
15	0	0	0	0	28	31	483	312	2	35	
0	0	0	0	0	28	31	481	312	2	35	
1	0	0	0	0	28	31	481	312	2	35	
2	0	0	0	0	28	31	480	312	2	35	
3	0	0	0	0	28	31	480	312	2	35	
4	0	0	0	0	25	31	480	310	2	35	
5	0	0	0	0	28	31	480	312	2	35	
6	0	0	0	0	25	31	480	312	2	35	
7	0	0	0	0	28	31	480	310	2	35	
8	0	0	0	0	28	31	480	310	2	35	
9	0	0	0	0	28	33	480	308	2	35	
10	0	0	0	0	28	33	478	308	2	35	
11	0	0	0	0	28	31	476	307	2	35	
12	0	0	0	0	28	31	476	308	2	35	
13	0	0	0	0	28	31	473	307	2	35	
14	0	0	0	0	25	31	472	307	2	35	
15	0	0	0	0	28	31	472	307	2	35	
0	0	0	0	0	25	31	467	307	2	35	
1	0	0	0	0	28	35	467	307	2	35	
2	0	0	0	0	28	31	463	307	2	35	
3	0	0	0	0	28	31	463	307	2	35	
4	0	0	0	0	28	31	463	307	2	35	
5	0	0	0	0	28	31	462	307	2	35	
6	0	0	0	0	25	31	460	307	2	35	
7	0	0	0	0	28	31	460	307	2	35	
8	0	0	0	0	28	35	457	307	2	35	
9	0	0	0	0	25	31	455	307	2	35	
10	0	0	0	0	25	31	455	307	2	35	
11	0	0	0	0	25	31	455	307	2	35	
12	0	0	0	0	28	31	455	307	2	35	
13	0	0	0	0	28	33	455	307	2	35	
14	0	0	0	0	28	31	455	308	2	35	
15	0	0	0	0	28	31	454	310	2	35	
0	0	0	0	0	28	31	451	310	2	35	
1	0	0	0	0	28	31	451	310	2	35	
2	0	0	0	0	28	33	449	310	2	35	
3	0	0	0	0	28	33	448	310	2	35	
4	0	0	0	0	28	31	448	310	2	35	
5	0	0	0	0	28	31	448	312	2	35	
6	0	0	0	0	25	31	448	312	2	35	
7	0	0	0	0	28	31	444	312	2	35	
8	0	0	0	0	28	31	444	312	2	35	
9	0	0	0	0	28	31	444	312	2	35	
10	0	0	0	0	28	31	444	312	2	35	
11	0	0	0	0	28	31	444	312	2	35	
12	0	0	0	0	28	31	444	312	2	35	
13	0	0	0	0	28	31	444	312	2	35	
14	0	0	0	0	25	31	448	312	2	35	
15	0	0	0	0	25	31	448	312	2	35	
0	0	0	0	0	28	31	448	312	2	35	
1	0	0	0	0	25	31	448	312	2	35	
2	0	0	0	0	28	31	448	312	2	35	
3	0	0	0	0	28	31	448	312	2	35	
4	0	0	0	0	28	31	448	312	2	35	
5	0	0	0	0	28	31	448	312	2	35	
6	0	0	0	0	28	31	449	312	2	35	
7	0	0	0	0	28	31	449	312	2	35	
8	0	0	0	0	28	33	449	312	2	35	
9	0	0	0	0	28	31	451	312	2	35	
10	0	0	0	0	28	31	451	312	2	35	
11	0	0	0	0	28	31	451	312	2	35	
12	0	0	0	0	28	31	454	312	2	35	
13	0	0	0	0	25	31	455	312	2	35	
14	0	0	0	0	28	31	455	312	2	35	
15	0	0	0	0	25	31	460	312	2	35	
0	0	0	0	0	28	33	462	312	2	35	
1	0	0	0	0	28	31	463	312	2	35	
2	0	0	0	0	28	33	463	312	2	35	
3	0	0	0	0	25	31	467	312	2	35	
4	0	0	0	0	28	33	472	312	2	35	
5	0	0	0	0	28	31	472	312	2	35	
6	0	0	0	0	28	31	473	312	2	35	
7	0	0	0	0	28	31	476	310	2	35	
8	0	0	0	0	25	31	480	312	2	35	
9	0	0	0	0	28	33	480	310	2	35	
10	0	0	0	0	28	31	480	310	2	35	
11	0	0	0	0	28	31	483	310	2	35	
12	0	0	0	0	28	31	483	307	2	35	
13	0	0	0	0	28	31	486	307	2	35	
14	0	0	0	0	28	33	487	307	2	35	
15	0	0	0	0	25	31	487	307	2	35	
0	0	0	0	0	28	31	489	307	2	35	
1	0	0	0	0	25	31	492	307	2	35	
2	0	0	0	0	28	31	496	307	2	35	
3	0	0	0	0	28	31	496	307	2	35	
4	0	0	0	0	28	31	499	307	2	35	
5	0	0	0	0	28	31	502	307	2	35	
6	0	0	0	0	25	31	504	307	2	35	
7	0	0	0	0	28	31	505	307	2	35	
8	0	0	0	0	25	31	508	307	2	35	
9	0	0	0	0	28	31	511	307	2	35	
10	0	0	0	0	28	33	512	307	2	35	
11	0	0	0	0	25	31	513	307	2	35	
12	0	0	0	0	28	33	515	307	2	35	
13	0	0	0	0	28	31	518	307	2	35	
14	0	0	0	0	28	31	519	307	2	35	
15	0	0	0	0	28	31	519	307	2	35	
0	0	0	0	0	28	31	519	307	2	35	
1	0	0	0	0	28	31	521	307	2	35	
2	0	0	0	0	28	33	524	307	2	35	
3	0	0	0	0	25	31	524	307	2	35	
4	0	0	0	0	28	33	527	307	2	35	
5	0	0	0	0	28	31	527	307	2	35	
6	0	0	0	0	28	33	527	308	2	35	
7	0	0	0	0	28	31	531	308	2	35	
8	0	0	0	0	28	31	532	310	2	35	
9	0	0	0	0	28	33	536	310	2	35	
10	0	0	0	0	28	31	536	310	2	35	
11	0	0	0	0	28	33	536	310	2	35	
12	0	0	0	0	28	31	540	312	2	35	
13	0	0	0	0	28	31	540	312	2	35	
14	0	0	0	0	25	31	540	312	2	35	
15	0	0	0	0	30	33	540	312	2	35	
0	0	0	0	0	28	31	542	312	2	35	
1	0	0	0	0	25	31	542	312	2	35	
2	0	0	0	0	28	31	542	312	2	35	
3	0	0	0	0	28	31	542	312	2	35	
4	0	0	0	0	28	31	542	312	2	35	
5	0	0	0	0	28	31	542	312	2	35	
6	0	0	0	0	28	31	542	312	2	35	
7	0	0	0	0	28	31	542	312	2	35	
8	0	0	0	0	28	33	542	312	2	35	
9	0	0	0	0	28	31	542	312	2	35	
10	0	0	0	0	28	31	542	312	2	35	
11	0	0	0	0	28	35	543	312	2	35	
12	0	0	0	0	28	31	543	312	2	35	
13	0	0	0	0	28	33	543	312	2	35	
14	0	0	0	0	28	31	543	312	2	35	
15	0	0	0	0	28	31	543	312	2	35	
0	0	0	0	0	28	33	543	312	2	35	
1	0	0	0	0	28	33	547	312	2	35	
2	0	0	0	0	28	31	547	312	2	35	
3	0	0	0	0	25	33	547	312	2	35	
4	0	0	0	0	27	31	547	312	2	35	
5	0	0	0	0	28	33	547	312	2	35	
6	0	0	0	0	27	31	547	312	2	35	
7	0	0	0	0	28	31	543	312	2	35	
8	0	0	0	0	28	31	543	312	2	35	
9	0	0	0	0	28	31	543	312	2	35	
10	0	0	0	0	28	33	543	312	2	35	
11	0	0	0	0	25	31	543	312	2	35	
12	0	0	0	0	28	31	543	312	2	35	
13	0	0	0	0	28	31	543	312	2	35	
14	0	0	0	0	25	33	543	312	2	35	
15	0	0	0	0	28	31	543	312	2	35	
0	0	0	0	0	28	31	543	312	2	35	
1	0	0	0	0	28	31	543	312	2	35	
2	0	0	0	0	28	31	543	312	2	35	
3	0	0	0	0	28	35	543	312	2	35	
4	0	0	0	0	28	31	543	312	2	35	
5	0	0	0	0	28	31	545	312	2	35	
6	0	0	0	0	28	33	545	312	2	35	
7	0	0	0	0	28	31	547	312	2	35	
8	0	0	0	0	28	31	547	312	2	35	
9	0	0	0	0	28	31	543	312	2	35	
10	0	0	0	0	28	31	543	312	2	35	
11	0	0	0	0	25	31	543	312	2	35	
12	0	0	0	0	25	31	543	312	2	35	
13	0	0	0	0	28	31	543	312	2	35	
14	0	0	0	0	25	31	543	312	2	35	
15	0	0	0	0	28	31	543	310	2	35	
0	0	0	0	0	28	31	543	310	2	35	
1	0	0	0	0	28	33	543	310	2	35	
2	0	0	0	0	28	33	543	310	2	35	
3	0	0	0	0	25	31	543	312	2	35	
4	0	0	0	0	28	31	543	310	2	35	
5	0	0	0	0	28	31	543	310	2	35	
6	0	0	0	0	25	31	543	310	2	35	
7	0	0	0	0	28	31	547	310	2	35	
8	0	0	0	0	28	31	547	310	2	35	
9	0	0	0	0	28	33	547	310	2	35	
10	0	0	0	0	28	31	547	310	2	35	
11	0	0	0	0	28	31	547	310	2	35	
12	0	0	0	0	28	31	547	310	2	35	
13	0	0	0	0	28	33	543	310	2	35	
14	0	0	0	0	25	31	543	310	2	35	
15	0	0	0	0	28	31	543	310	2	35	
0	0	0	0	0	28	31	543	310	2	35	
1	0	0	0	0	28	31	543	310	2	35	
2	0	0	0	0	30	35	543	310	2	35	
3	0	0	0	0	28	31	543	310	2	35	
4	0	0	0	0	28	33	543	310	2	35	
5	0	0	0	0	28	31	543	310	2	35	
6	0	0	0	0	28	31	543	310	2	35	
7	0	0	0	0	28	33	543	310	2	35	
8	0	0	0	0	28	31	543	310	2	35	
9	0	0	0	0	25	31	543	310	2	35	
10	0	0	0	0	28	31	543	310	2	35	
11	0	0	0	0	25	31	543	310	2	35	
12	0	0	0	0	28	31	543	310	2	35	
13	0	0	0	0	28	31	543	310	2	35	
14	0	0	0	0	28	31	543	310	2	35	
15	0	0	0	0	28	31	543	310	2	35	
0	0	0	0	0	28	31	543	312	2	35	
1	0	0	0	0	28	31	542	312	2	35	
2	0	0	0	0	28	33	542	312	2	35	
3	0	0	0	0	28	33	540	312	2	35	
4	0	0	0	0	27	31	540	312	2	35	
5	0	0	0	0	28	31	537	312	2	35	
6	0	0	0	0	27	31	536	312	2	35	
7	0	0	0	0	28	31	536	312	2	35	
8	0	0	0	0	28	33	536	312	2	35	
9	0	0	0	0	28	31	536	312	2	35	
10	0	0	0	0	28	31	536	312	2	35	
11	0	0	0	0	28	31	536	312	2	35	
12	0	0	0	0	28	33	536	312	2	35	
13	0	0	0	0	28	31	536	312	2	35	
14	0	0	0	0	25	31	536	312	2	35	
15	0	0	0	0	28	31	537	312	2	35	
0	0	0	0	0	28	31	537	312	2	35	
1	0	0	0	0	27	31	540	312	2	35	
2	0	0	0	0	28	31	540	312	2	35	
3	0	0	0	0	28	31	540	310	2	35	
4	0	0	0	0	28	31	540	310	2	35	
5	0	0	0	0	28	31	540	310	2	35	
6	0	0	0	0	28	31	537	310	2	35	
7	0	0	0	0	28	31	537	310	2	35	
8	0	0	0	0	28	35	536	308	2	35	
9	0	0	0	0	28	31	536	307	2	35	
10	0	0	0	0	28	31	536	307	2	35	
11	0	0	0	0	28	35	536	307	2	35	
12	0	0	0	0	28	31	536	308	2	35	
13	0	0	0	0	28	31	536	307	2	35	
14	0	0	0	0	28	31	536	307	2	35	
15	0	0	0	0	28	31	536	310	2	35	
0	0	0	0	0	28	31	536	310	2	35	
1	0	0	0	0	28	31	536	310	2	35	
2	0	0	0	0	28	31	536	310	2	35	
3	0	0	0	0	28	31	536	310	2	35	
4	0	0	0	0	28	35	536	310	2	35	
5	0	0	0	0	28	33	536	310	2	35	
6	0	0	0	0	25	31	536	310	2	35	
7	0	0	0	0	28	31	536	310	2	35	
8	0	0	0	0	28	31	536	310	2	35	
9	0	0	0	0	25	31	536	307	2	35	
10	0	0	0	0	28	31	536	307	2	35	
11	0	0	0	0	28	31	536	307	2	35	
12	0	0	0	0	28	31	534	307	2	35	
13	0	0	0	0	28	31	531	307	2	35	
14	0	0	0	0	25	31	531	307	2	35	
15	0	0	0	0	28	31	531	307	2	35	
0	0	0	0	0	28	33	531	307	2	35	
1	0	0	0	0	28	33	531	307	2	35	
2	0	0	0	0	28	31	531	305	2	35	
3	0	0	0	0	28	31	531	305	2	35	
4	0	0	0	0	25	31	534	307	2	35	
5	0	0	0	0	28	31	534	307	2	35	
6	0	0	0	0	28	33	536	307	2	35	
7	0	0	0	0	28	31	536	307	2	35	
8	0	0	0	0	28	31	536	307	2	35	
9	0	0	0	0	28	31	536	307	2	35	
10	0	0	0	0	28	31	536	307	2	35	
11	0	0	0	0	25	31	536	307	2	35	
12	0	0	0	0	28	31	536	307	2	35	
13	0	0	0	0	28	31	536	307	2	35	
14	0	0	0	0	28	31	536	307	2	35	
15	0	0	0	0	28	31	532	307	2	35	
0	0	0	0	0	28	31	531	307	2	35	
1	0	0	0	0	25	31	531	307	2	35	
2	0	0	0	0	28	31	531	307	2	35	
3	0	0	0	0	25	31	529	307	2	35	
4	0	0	0	0	28	31	529	307	2	35	
5	0	0	0	0	28	31	529	307	2	35	
6	0	0	0	0	28	33	529	307	2	35	
7	0	0	0	0	28	31	531	307	2	35	
8	0	0	0	0	28	31	531	307	2	35	
9	0	0	0	0	28	31	531	307	2	35	
10	0	0	0	0	28	31	531	307	2	35	
11	0	0	0	0	28	31	531	307	2	35	
12	0	0	0	0	28	31	531	307	2	35	
13	0	0	0	0	28	31	531	310	2	35	
14	0	0	0	0	25	31	531	310	2	35	
15	0	0	0	0	28	31	531	310	2	35	
0	0	0	0	0	28	31	531	312	2	35	
1	0	0	0	0	25	31	531	312	2	35	
2	0	0	0	0	28	31	529	312	2	35	
3	0	0	0	0	28	31	527	312	2	35	
4	0	0	0	0	28	31	527	312	2	35	
5	0	0	0	0	28	31	527	312	2	35	
6	0	0	0	0	28	31	527	312	2	35	
7	0	0	0	0	28	33	526	312	2	35	
8	0	0	0	0	28	31	526	312	2	35	
9	0	0	0	0	25	31	526	312	2	35	
10	0	0	0	0	28	31	526	312	2	35	
11	0	0	0	0	28	31	526	312	2	35	
12	0	0	0	0	28	31	527	312	2	35	
13	0	0	0	0	28	31	527	312	2	35	
14	0	0	0	0	28	31	527	312	2	35	
15	0	0	0	0	28	31	527	312	2	35	
0	0	0	0	0	28	31	527	312	2	35	
1	0	0	0	0	28	31	527	312	2	35	
2	0	0	0	0	28	31	527	312	2	35	
3	0	0	0	0	28	31	527	312	2	35	
4	0	0	0	0	28	35	527	312	2	35	
5	0	0	0	0	28	31	527	312	2	35	
6	0	0	0	0	28	31	527	312	2	35	
7	0	0	0	0	28	31	527	312	2	35	
8	0	0	0	0	28	31	527	312	2	35	
9	0	0	0	0	28	31	527	312	2	35	
10	0	0	0	0	25	31	526	312	2	35	
11	0	0	0	0	28	31	526	312	2	35	
12	0	0	0	0	28	33	526	312	2	35	
13	0	0	0	0	28	31	526	312	2	35	
14	0	0	0	0	27	33	526	312	2	35	
15	0	0	0	0	28	31	527	312	2	35	
0	0	0	0	0	28	31	527	312	2	35	
1	0	0	0	0	28	35	527	312	2	35	
2	0	0	0	0	30	35	527	312	2	35	
3	0	0	0	0	28	33	527	312	2	35	
4	0	0	0	0	28	31	527	312	2	35	
5	0	0	0	0	28	31	529	312	2	35	
6	0	0	0	0	28	31	529	312	2	35	
7	0	0	0	0	28	33	529	312	2	35	
8	0	0	0	0	28	33	531	312	2	35	
9	0	0	0	0	28	31	531	312	2	35	
10	0	0	0	0	28	31	529	312	2	35	
11	0	0	0	0	28	33	529	310	2	35	
12	0	0	0	0	28	31	529	310	2	35	
13	0	0	0	0	28	31	529	310	2	35	
14	0	0	0	0	28	31	529	310	2	35	
15	0	0	0	0	28	31	527	307	2	35	
0	0	0	0	0	28	31	527	307	2	35	
1	0	0	0	0	28	33	529	307	2	35	
2	0	0	0	0	28	31	529	307	2	35	
3	0	0	0	0	25	31	531	307	2	35	
4	0	0	0	0	28	35	531	307	2	35	
5	0	0	0	0	28	31	531	305	2	35	
6	0	0	0	0	28	33	531	305	2	35	
7	0	0	0	0	28	31	536	305	2	35	
8	0	0	0	0	28	31	536	305	2	35	
9	0	0	0	0	28	31	536	305	2	35	
10	0	0	0	0	28	31	536	305	2	35	
11	0	0	0	0	28	31	536	305	2	35	
12	0	0	0	0	28	31	536	305	2	35	
13	0	0	0	0	28	31	536	305	2	35	
14	0	0	0	0	25	31	536	305	2	35	
15	0	0	0	0	28	31	536	305	2	35	
0	0	0	0	0	27	31	536	305	2	35	
1	0	0	0	0	28	33	534	305	2	35	
2	0	0	0	0	28	33	531	307	2	35	
3	0	0	0	0	28	33	531	307	2	35	
4	0	0	0	0	28	31	532	307	2	35	
5	0	0	0	0	28	31	534	307	2	35	
6	0	0	0	0	28	31	536	307	2	35	
7	0	0	0	0	28	31	536	307	2	35	
8	0	0	0	0	25	31	536	307	2	35	
9	0	0	0	0	25	31	536	310	2	35	
10	0	0	0	0	28	33	536	310	2	35	
11	0	0	0	0	28	33	536	312	2	35	
12	0	0	0	0	28	31	536	312	2	35	
13	0	0	0	0	28	33	537	312	2	35	
14	0	0	0	0	28	33	537	312	2	35	
15	0	0	0	0	28	31	537	312	2	35	
0	0	0	0	0	28	33	536	312	2	35	
1	0	0	0	0	28	31	536	312	2	35	
2	0	0	0	0	28	31	536	312	2	35	
3	0	0	0	0	28	35	536	312	2	35	
4	0	0	0	0	25	31	536	312	2	35	
5	0	0	0	0	28	33	531	312	2	35	
6	0	0	0	0	25	31	531	312	2	35	
7	0	0	0	0	28	33	531	312	2	35	
8	0	0	0	0	28	31	531	312	2	35	
9	0	0	0	0	28	31	531	312	2	35	
10	0	0	0	0	28	31	531	312	2	35	
11	0	0	0	0	28	31	531	312	2	35	
12	0	0	0	0	28	31	531	313	2	35	
13	0	0	0	0	28	31	531	313	2	35	
14	0	0	0	0	25	33	531	313	2	35	
15	0	0	0	0	28	31	531	313	2	35	
0	0	0	0	0	28	31	534	313	2	35	
1	0	0	0	0	28	31	534	313	2	35	
2	0	0	0	0	28	31	534	313	2	35	
3	0	0	0	0	28	33	534	313	2	35	
4	0	0	0	0	28	33	532	313	2	35	
5	0	0	0	0	30	35	531	313	2	35	
6	0	0	0	0	28	35	531	312	2	35	
7	0	0	0	0	28	31	531	312	2	35	
8	0	0	0	0	28	31	531	312	2	35	
9	0	0	0	0	28	31	529	312	2	35	
10	0	0	0	0	28	31	529	312	2	35	
11	0	0	0	0	28	31	527	312	2	35	
12	0	0	0	0	28	33	527	312	2	35	
13	0	0	0	0	28	31	527	312	2	35	
14	0	0	0	0	28	35	527	312	2	35	
15	0	0	0	0	28	35	527	312	2	35	
0	0	0	0	0	28	31	527	312	2	35	
1	0	0	0	0	28	31	529	312	2	35	
2	0	0	0	0	28	31	529	312	2	35	
3	0	0	0	0	25	31	531	312	2	35	
4	0	0	0	0	28	33	531	312	2	35	
5	0	0	0	0	28	31	531	312	2	35	
6	0	0	0	0	28	35	531	312	2	35	
7	0	0	0	0	28	31	531	312	2	35	
8	0	0	0	0	28	31	529	312	2	35	
9	0	0	0	0	28	31	529	312	2	35	
10	0	0	0	0	28	35	527	312	2	35	
11	0	0	0	0	28	31	527	312	2	35	
12	0	0	0	0	28	31	527	312	2	35	
13	0	0	0	0	28	31	527	312	2	35	
14	0	0	0	0	25	33	527	312	2	35	
15	0	0	0	0	28	33	527	312	2	35	
0	0	0	0	0	28	34	527	310	2	35	
1	0	0	0	0	28	31	527	310	2	35	
2	0	0	0	0	28	31	527	310	2	35	
3	0	0	0	0	28	31	527	310	2	35	
4	0	0	0	0	28	31	527	310	2	35	
5	0	0	0	0	28	31	527	310	2	35	
6	0	0	0	0	28	31	527	308	2	35	
7	0	0	0	0	28	33	527	310	2	35	
8	0	0	0	0	28	35	527	310	2	35	
9	0	0	0	0	28	31	529	308	2	35	
10	0	0	0	0	28	33	529	307	2	35	
11	0	0	0	0	28	33	527	307	2	35	
12	0	0	0	0	28	31	527	307	2	35	
13	0	0	0	0	28	31	527	307	2	35	
14	0	0	0	0	28	31	527	307	2	35	
15	0	0	0	0	25	31	527	307	2	35	
0	0	0	0	0	28	31	527	307	2	35	
1	0	0	0	0	28	31	526	307	2	35	
2	0	0	0	0	28	33	526	307	2	35	
3	0	0	0	0	25	33	524	307	2	35	
4	0	0	0	0	28	33	524	307	2	35	
5	0	0	0	0	28	35	524	307	2	35	
6	0	0	0	0	25	31	524	307	2	35	
7	0	0	0	0	28	31	524	307	2	35	
8	0	0	0	0	28	31	524	307	2	35	
9	0	0	0	0	28	31	524	307	2	35	
10	0	0	0	0	28	31	526	307	2	35	
11	0	0	0	0	28	31	526	307	2	35	
12	0	0	0	0	28	31	526	307	2	35	
13	0	0	0	0	28	31	526	307	2	35	
14	0	0	0	0	28	33	526	307	2	35	
15	0	0	0	0	25	31	526	307	2	35	
0	0	0	0	0	28	31	526	310	2	35	
1	0	0	0	0	27	31	526	310	2	35	
2	0	0	0	0	28	31	524	310	2	35	
3	0	0	0	0	28	31	524	312	2	35	
4	0	0	0	0	28	31	524	312	2	35	
5	0	0	0	0	28	31	521	312	2	35	
6	0	0	0	0	28	33	521	312	2	35	
7	0	0	0	0	28	31	519	312	2	35	
8	0	0	0	0	28	31	519	312	2	35	
9	0	0	0	0	28	31	519	312	2	35	
10	0	0	0	0	28	31	519	312	2	35	
11	0	0	0	0	28	35	519	312	2	35	
12	0	0	0	0	28	35	521	312	2	35	
13	0	0	0	0	28	31	521	312	2	35	
14	0	0	0	0	28	31	524	312	2	35	
15	0	0	0	0	28	31	524	312	2	35	
0	0	0	0	0	28	31	524	312	2	35	
1	0	0	0	0	28	33	524	312	2	35	
2	0	0	0	0	28	33	526	312	2	35	
3	0	0	0	0	25	31	526	312	2	35	
4	0	0	0	0	28	31	526	312	2	35	
5	0	0	0	0	25	31	526	312	2	35	
6	0	0	0	0	28	31	524	312	2	35	
7	0	0	0	0	28	31	524	312	2	35	
8	0	0	0	0	28	31	524	312	2	35	
9	0	0	0	0	28	31	524	312	2	35	
10	0	0	0	0	28	31	524	312	2	35	
11	0	0	0	0	28	33	524	312	2	35	
12	0	0	0	0	28	31	524	312	2	35	
13	0	0	0	0	28	31	524	312	2	35	
14	0	0	0	0	28	35	524	312	2	35	
15	0	0	0	0	28	31	524	312	2	35	
0	0	0	0	0	28	35	524	312	2	35	
1	0	0	0	0	28	31	524	312	2	35	
2	0	0	0	0	28	33	526	312	2	35	
3	0	0	0	0	28	31	527	312	2	35	
4	0	0	0	0	28	31	527	312	2	35	
5	0	0	0	0	28	31	527	312	2	35	
6	0	0	0	0	28	33	527	312	2	35	
7	0	0	0	0	28	31	527	312	2	35	
8	0	0	0	0	28	31	527	312	2	35	
9	0	0	0	0	28	33	527	312	2	35	
10	0	0	0	0	28	33	527	312	2	35	
11	0	0	0	0	28	31	527	310	2	35	
12	0	0	0	0	28	33	526	310	2	35	
13	0	0	0	0	28	31	526	310	2	35	
14	0	0	0	0	28	31	524	310	2	35	
15	0	0	0	0	28	31	524	310	2	35	
0	0	0	0	0	28	31	524	310	2	35	
1	0	0	0	0	28	31	521	310	2	35	
2	0	0	0	0	28	31	519	310	2	35	
3	0	0	0	0	25	33	519	312	2	35	
4	0	0	0	0	27	31	519	312	2	35	
5	0	0	0	0	28	33	519	312	2	35	
6	0	0	0	0	28	31	519	312	2	35	
7	0	0	0	0	28	31	519	312	2	35	
8	0	0	0	0	28	33	519	312	2	35	
9	0	0	0	0	25	31	519	310	2	35	
10	0	0	0	0	28	31	519	310	2	35	
11	0	0	0	0	28	31	519	307	2	35	
12	0	0	0	0	28	31	519	307	2	35	
13	0	0	0	0	28	33	519	307	2	35	
14	0	0	0	0	28	35	519	307	2	35	
15	0	0	0	0	28	31	519	307	2	35	
0	0	0	0	0	25	31	519	305	2	35	
1	0	0	0	0	27	31	519	305	2	35	
2	0	0	0	0	28	33	519	305	2	35	
3	0	0	0	0	28	31	518	305	2	35	
4	0	0	0	0	28	31	518	305	2	35	
5	0	0	0	0	28	31	518	305	2	35	
6	0	0	0	0	28	31	515	307	2	35	
7	0	0	0	0	28	31	515	307	2	35	
8	0	0	0	0	28	31	515	307	2	35	
9	0	0	0	0	28	31	515	307	2	35	
10	0	0	0	0	28	31	515	307	2	35	
11	0	0	0	0	28	33	515	307	2	35	
12	0	0	0	0	28	31	515	307	2	35	
13	0	0	0	0	25	31	513	307	2	35	
14	0	0	0	0	28	31	513	307	2	35	
15	0	0	0	0	28	31	512	310	2	35	
0	0	0	0	0	28	31	512	310	2	35	
1	0	0	0	0	28	33	511	310	2	35	
2	0	0	0	0	28	31	510	310	2	35	
3	0	0	0	0	28	31	510	312	2	35	
4	0	0	0	0	28	31	508	312	2	35	
5	0	0	0	0	28	31	508	312	2	35	
6	0	0	0	0	28	33	505	312	2	35	
7	0	0	0	0	28	31	505	312	2	35	
8	0	0	0	0	28	31	504	312	2	35	
9	0	0	0	0	28	31	504	312	2	35	
10	0	0	0	0	28	31	504	312	2	35	
11	0	0	0	0	28	31	504	312	2	35	
12	0	0	0	0	28	33	504	310	2	35	
13	0	0	0	0	28	33	504	310	2	35	
14	0	0	0	0	28	35	504	310	2	35	
15	0	0	0	0	28	31	504	310	2	35	
0	0	0	0	0	25	31	504	310	2	35	
1	0	0	0	0	28	31	504	310	2	35	
2	0	0	0	0	28	33	504	310	2	35	
3	0	0	0	0	28	31	504	310	2	35	
4	0	0	0	0	28	33	504	310	2	35	
5	0	0	0	0	28	31	504	312	2	35	
6	0	0	0	0	28	33	502	312	2	35	
7	0	0	0	0	28	33	502	312	2	35	
8	0	0	0	0	28	33	500	312	2	35	
9	0	0	0	0	28	31	502	312	2	35	
10	0	0	0	0	28	35	502	312	2	35	
11	0	0	0	0	28	31	502	312	2	35	
12	0	0	0	0	28	31	504	312	2	35	
13	0	0	0	0	28	33	504	312	2	35	
14	0	0	0	0	28	33	504	312	2	35	
15	0	0	0	0	28	31	504	312	2	35	
0	0	0	0	0	28	31	508	312	2	35	
1	0	0	0	0	28	31	508	312	2	35	
2	0	0	0	0	28	31	510	312	2	35	
3	0	0	0	0	25	31	511	312	2	35	
4	0	0	0	0	28	35	512	312	2	35	
5	0	0	0	0	28	33	513	312	2	35	
6	0	0	0	0	28	35	515	312	2	35	
7	0	0	0	0	28	31	518	312	2	35	
8	0	0	0	0	28	33	519	312	2	35	
9	0	0	0	0	28	33	519	312	2	35	
10	0	0	0	0	28	33	519	312	2	35	
11	0	0	0	0	28	31	519	312	2	35	
12	0	0	0	0	28	31	521	312	2	35	
13	0	0	0	0	28	31	524	312	2	35	
14	0	0	0	0	28	33	524	312	2	35	
15	0	0	0	0	28	33	526	312	2	35	
0	0	0	0	0	25	31	527	312	2	35	
1	0	0	0	0	25	31	527	310	2	35	
2	0	0	0	0	28	33	527	310	2	35	
3	0	0	0	0	28	33	527	310	2	35	
4	0	0	0	0	28	31	529	310	2	35	
5	0	0	0	0	28	31	531	310	2	35	
6	0	0	0	0	28	31	531	310	2	35	
7	0	0	0	0	28	31	531	310	2	35	
8	0	0	0	0	28	33	531	310	2	35	
9	0	0	0	0	28	31	531	310	2	35	
10	0	0	0	0	28	33	531	310	2	35	
11	0	0	0	0	28	33	531	310	2	35	
12	0	0	0	0	28	33	531	310	2	35	
13	0	0	0	0	28	31	531	310	2	35	
14	0	0	0	0	28	31	529	310	2	35	
15	0	0	0	0	28	33	527	310	2	35	
0	0	0	0	0	28	31	527	310	2	35	
1	0	0	0	0	28	31	527	310	2	35	
2	0	0	0	0	28	31	527	310	2	35	
3	0	0	0	0	28	31	527	310	2	35	
4	0	0	0	0	28	33	527	310	2	35	
5	0	0	0	0	28	31	527	308	2	35	
6	0	0	0	0	28	31	527	307	2	35	
7	0	0	0	0	28	31	527	307	2	35	
8	0	0	0	0	28	31	527	307	2	35	
9	0	0	0	0	28	33	527	307	2	35	
10	0	0	0	0	30	35	527	307	2	35	
11	0	0	0	0	28	31	529	307	2	35	
12	0	0	0	0	28	31	531	307	2	35	
13	0	0	0	0	28	31	531	307	2	35	
14	0	0	0	0	25	33	531	307	2	35	
15	0	0	0	0	28	31	531	307	2	35	
0	0	0	0	0	25	33	531	310	2	35	
1	0	0	0	0	28	31	529	308	2	35	
2	0	0	0	0	30	35	529	310	2	35	
3	0	0	0	0	28	33	527	308	2	35	
4	0	0	0	0	28	31	527	307	2	35	
5	0	0	0	0	28	31	527	307	2	35	
6	0	0	0	0	28	31	527	307	2	35	
7	0	0	0	0	28	31	527	307	2	35	
8	0	0	0	0	28	33	527	307	2	35	
9	0	0	0	0	28	33	526	307	2	35	
10	0	0	0	0	28	31	527	307	2	35	
11	0	0	0	0	28	35	527	307	2	35	
12	0	0	0	0	28	33	527	307	2	35	
13	0	0	0	0	28	31	527	310	2	35	
14	0	0	0	0	28	31	527	312	2	35	
15	0	0	0	0	28	31	527	312	2	35	
0	0	0	0	0	28	31	527	312	2	35	
1	0	0	0	0	28	31	527	312	2	35	
2	0	0	0	0	28	33	527	312	2	35	
3	0	0	0	0	25	31	527	312	2	35	
4	0	0	0	0	28	33	527	312	2	35	
5	0	0	0	0	30	35	527	312	2	35	
6	0	0	0	0	28	33	527	312	2	35	
7	0	0	0	0	28	33	527	313	2	35	
8	0	0	0	0	28	31	527	313	2	35	
9	0	0	0	0	28	33	527	316	2	35	
10	0	0	0	0	28	31	527	316	2	35	
11	0	0	0	0	28	31	527	316	2	35	
12	0	0	0	0	28	33	527	316	2	35	
13	0	0	0	0	28	35	529	316	2	35	
14	0	0	0	0	28	33	531	316	2	35	
15	0	0	0	0	28	31	536	316	2	35	
0	0	0	0	0	28	33	536	316	2	35	
1	0	0	0	0	28	33	540	316	2	35	
2	0	0	0	0	28	33	543	316	2	35	
3	0	0	0	0	28	31	547	316	2	35	
4	0	0	0	0	28	33	550	316	2	35	
5	0	0	0	0	28	35	551	313	2	35	
6	0	0	0	0	28	33	551	313	2	35	
7	0	0	0	0	28	31	551	313	2	35	
8	0	0	0	0	28	33	551	312	2	35	
9	0	0	0	0	28	31	547	312	2	35	
10	0	0	0	0	30	34	543	312	2	35	
11	0	0	0	0	28	31	540	312	2	35	
12	0	0	0	0	28	31	531	312	2	35	
13	0	0	0	0	28	31	524	312	2	35	
14	0	0	0	0	28	31	513	312	2	35	
15	0	0	0	0	28	31	504	312	2	35	
0	0	0	0	0	28	33	487	312	2	35	
1	0	0	0	0	28	31	472	312	2	35	
2	0	0	0	0	28	31	455	310	2	35	
3	0	0	0	0	25	33	440	310	2	35	
4	0	0	0	0	28	33	415	308	2	35	
5	0	0	0	0	28	31	396	307	2	35	
6	0	0	0	0	28	33	371	307	2	35	
7	0	0	0	0	30	33	350	307	2	35	
8	0	0	0	0	28	31	323	307	2	35	
9	0	0	0	0	28	31	300	307	2	35	
10	0	0	0	0	28	31	275	307	2	35	
11	0	0	0	0	28	31	254	307	2	35	
12	0	0	0	0	28	31	231	307	2	35	
13	0	0	0	0	28	31	211	307	2	35	
14	0	0	0	0	25	31	193	307	2	35	
15	0	0	0	0	28	31	179	307	2	35	
0	0	0	0	0	25	30	167	305	2	35	
1	0	0	0	0	28	31	158	305	2	35	
2	0	0	0	0	30	33	152	305	2	35	
3	0	0	0	0	28	31	150	305	2	35	
4	0	0	0	0	28	31	152	305	2	35	
5	0	0	0	0	28	31	158	305	2	35	
6	0	0	0	0	28	31	167	305	2	35	
7	0	0	0	0	28	31	179	305	2	35	
8	0	0	0	0	28	31	198	305	2	35	
9	0	0	0	0	25	31	216	305	2	35	
10	0	0	0	0	28	31	240	305	2	35	
11	0	0	0	0	28	31	263	305	2	35	
12	0	0	0	0	28	31	294	307	2	35	
13	0	0	0	0	28	31	319	307	2	35	
14	0	0	0	0	28	31	352	307	2	35	
15	0	0	0	0	28	31	380	307	2	35	
0	0	0	0	0	28	31	408	307	2	35	
1	0	0	0	0	28	33	433	307	2	35	
2	0	0	0	0	28	31	460	307	2	35	
3	0	0	0	0	25	31	481	307	2	35	
4	0	0	0	0	28	33	504	308	2	35	
5	0	0	0	0	28	31	519	308	2	35	
6	0	0	0	0	28	31	536	307	2	35	
7	0	0	0	0	28	33	543	307	2	35	
8	0	0	0	0	28	31	551	307	2	35	
9	0	0	0	0	28	31	558	308	2	35	
10	0	0	0	0	28	33	560	307	2	35	
11	0	0	0	0	28	31	560	307	2	35	
12	0	0	0	0	28	31	558	307	2	35	
13	0	0	0	0	28	31	551	307	2	35	
14	0	0	0	0	27	33	547	307	2	35	
15	0	0	0	0	28	31	540	307	2	35	
0	0	0	0	0	28	31	534	307	2	35	
1	0	0	0	0	25	33	527	307	2	35	
2	0	0	0	0	28	33	519	307	2	35	
3	0	0	0	0	30	35	513	307	2	35	
4	0	0	0	0	28	31	510	308	2	35	
5	0	0	0	0	28	33	504	310	2	35	
6	0	0	0	0	30	35	502	310	2	35	
7	0	0	0	0	28	31	499	310	2	35	
8	0	0	0	0	28	33	497	312	2	35	
9	0	0	0	0	28	31	497	312	2	35	
10	0	0	0	0	28	33	499	312	2	35	
11	0	0	0	0	28	31	499	312	2	35	
12	0	0	0	0	28	31	504	312	2	35	
13	0	0	0	0	28	33	504	312	2	35	
14	0	0	0	0	28	33	508	312	2	35	
15	0	0	0	0	28	31	510	312	2	35	
0	0	0	0	0	28	31	512	312	2	35	
1	0	0	0	0	28	31	515	312	2	35	
2	0	0	0	0	28	35	519	312	2	35	
3	0	0	0	0	27	33	519	312	2	35	
4	0	0	0	0	28	33	524	312	2	35	
5	0	0	0	0	28	33	524	312	2	35	
6	0	0	0	0	25	31	526	312	2	35	
7	0	0	0	0	28	31	527	312	2	35	
8	0	0	0	0	28	31	527	312	2	35	
9	0	0	0	0	28	31	527	312	2	35	
10	0	0	0	0	28	31	527	312	2	35	
11	0	0	0	0	28	31	527	312	2	35	
12	0	0	0	0	28	31	527	312	2	35	
13	0	0	0	0	28	31	526	312	2	35	
14	0	0	0	0	28	33	526	312	2	35	
15	0	0	0	0	28	31	526	310	2	35	
0	0	0	0	0	27	33	526	310	2	35	
1	0	0	0	0	28	33	526	310	2	35	
2	0	0	0	0	30	35	526	310	2	35	
3	0	0	0	0	28	31	526	310	2	35	
4	0	0	0	0	28	31	527	310	2	35	
5	0	0	0	0	28	33	527	310	2	35	
6	0	0	0	0	28	31	527	310	2	35	
7	0	0	0	0	28	31	527	312	2	35	
8	0	0	0	0	28	31	527	312	2	35	
9	0	0	0	0	28	31	527	312	2	35	
10	0	0	0	0	28	33	527	312	2	35	
11	0	0	0	0	28	31	527	312	2	35	
12	0	0	0	0	28	31	527	312	2	35	
13	0	0	0	0	28	33	527	312	2	35	
14	0	0	0	0	28	33	527	312	2	35	
15	0	0	0	0	30	35	527	312	2	35	
0	0	0	0	0	28	31	526	312	2	35	
1	0	0	0	0	28	31	524	312	2	35	
2	0	0	0	0	28	33	524	312	2	35	
3	0	0	0	0	28	31	524	312	2	35	
4	0	0	0	0	25	33	524	312	2	35	
5	0	0	0	0	28	31	524	312	2	35	
6	0	0	0	0	28	35	524	312	2	35	
7	0	0	0	0	28	33	524	312	2	35	
8	0	0	0	0	28	31	524	312	2	35	
9	0	0	0	0	28	31	524	312	2	35	
10	0	0	0	0	28	31	524	312	2	35	
11	0	0	0	0	28	31	524	312	2	35	
12	0	0	0	0	28	31	524	312	2	35	
13	0	0	0	0	28	31	524	310	2	35	
14	0	0	0	0	25	33	524	310	2	35	
15	0	0	0	0	28	31	521	310	2	35	
0	0	0	0	0	28	33	519	308	2	35	
1	0	0	0	0	28	31	519	307	2	35	
2	0	0	0	0	28	31	519	307	2	35	
3	0	0	0	0	28	33	519	307	2	35	
4	0	0	0	0	28	31	518	307	2	35	
5	0	0	0	0	28	31	515	307	2	35	
6	0	0	0	0	28	33	515	307	2	35	
7	0	0	0	0	28	31	515	307	2	35	
8	0	0	0	0	28	33	513	307	2	35	
9	0	0	0	0	25	31	513	307	2	35	
10	0	0	0	0	28	31	512	307	2	35	
11	0	0	0	0	28	31	512	307	2	35	
12	0	0	0	0	30	35	512	307	2	35	
13	0	0	0	0	28	33	512	307	2	35	
14	0	0	0	0	30	35	512	307	2	35	
15	0	0	0	0	28	33	513	307	2	35	
0	0	0	0	0	28	33	513	307	2	35	
1	0	0	0	0	28	31	513	307	2	35	
2	0	0	0	0	28	31	513	307	2	35	
3	0	0	0	0	28	35	513	307	2	35	
4	0	0	0	0	28	33	512	310	2	35	
5	0	0	0	0	28	31	512	310	2	35	
6	0	0	0	0	28	33	512	310	2	35	
7	0	0	0	0	28	31	511	310	2	35	
8	0	0	0	0	28	31	510	312	2	35	
9	0	0	0	0	28	31	510	312	2	35	
10	0	0	0	0	28	31	508	312	2	35	
11	0	0	0	0	28	31	508	312	2	35	
12	0	0	0	0	28	31	505	312	2	35	
13	0	0	0	0	28	31	505	312	2	35	
14	0	0	0	0	28	35	504	312	2	35	
15	0	0	0	0	28	31	504	312	2	35	
0	0	0	0	0	28	33	504	312	2	35	
1	0	0	0	0	28	35	504	312	2	35	
2	0	0	0	0	28	33	504	312	2	35	
3	0	0	0	0	28	31	504	312	2	35	
4	0	0	0	0	28	31	504	312	2	35	
5	0	0	0	0	28	31	504	312	2	35	
6	0	0	0	0	30	35	504	312	2	35	
7	0	0	0	0	28	31	504	312	2	35	
8	0	0	0	0	28	35	504	312	2	35	
9	0	0	0	0	28	31	502	312	2	35	
10	0	0	0	0	28	33	499	312	2	35	
11	0	0	0	0	28	31	499	312	2	35	
12	0	0	0	0	28	31	497	312	2	35	
13	0	0	0	0	28	33	496	312	2	35	
14	0	0	0	0	28	31	496	312	2	35	
15	0	0	0	0	28	31	496	312	2	35	
0	0	0	0	0	28	31	494	312	2	35	
1	0	0	0	0	28	33	492	312	2	35	
2	0	0	0	0	28	33	492	312	2	35	
3	0	0	0	0	28	31	492	312	2	35	
4	0	0	0	0	28	31	489	312	2	35	
5	0	0	0	0	28	33	489	312	2	35	
6	0	0	0	0	28	31	487	312	2	35	
7	0	0	0	0	28	31	487	312	2	35	
8	0	0	0	0	28	33	487	312	2	35	
9	0	0	0	0	28	33	487	312	2	35	
10	0	0	0	0	28	33	487	312	2	35	
11	0	0	0	0	28	31	487	312	2	35	
12	0	0	0	0	28	31	486	310	2	35	
13	0	0	0	0	28	31	483	310	2	35	
14	0	0	0	0	25	33	481	312	2	35	
15	0	0	0	0	28	31	480	310	2	35	
0	0	0	0	0	28	31	480	310	2	35	
1	0	0	0	0	28	35	480	310	2	35	
2	0	0	0	0	28	33	478	310	2	35	
3	0	0	0	0	28	33	476	310	2	35	
4	0	0	0	0	28	31	476	310	2	35	
5	0	0	0	0	28	31	473	310	2	35	
6	0	0	0	0	28	31	472	310	2	35	
7	0	0	0	0	28	31	472	310	2	35	
8	0	0	0	0	28	33	472	310	2	35	
9	0	0	0	0	28	31	472	310	2	35	
10	0	0	0	0	28	33	472	310	2	35	
11	0	0	0	0	28	31	472	310	2	35	
12	0	0	0	0	28	31	470	310	2	35	
13	0	0	0	0	28	31	467	310	2	35	
14	0	0	0	0	28	31	467	310	2	35	
15	0	0	0	0	28	31	465	310	2	35	
0	0	0	0	0	28	31	463	310	2	35	
1	0	0	0	0	28	33	463	310	2	35	
2	0	0	0	0	30	35	462	310	2	35	
3	0	0	0	0	28	31	460	308	2	35	
4	0	0	0	0	28	35	460	310	2	35	
5	0	0	0	0	28	31	455	307	2	35	
6	0	0	0	0	28	31	455	307	2	35	
7	0	0	0	0	28	31	455	307	2	35	
8	0	0	0	0	28	31	455	307	2	35	
9	0	0	0	0	28	31	454	307	2	35	
10	0	0	0	0	28	31	454	307	2	35	
11	0	0	0	0	28	31	454	307	2	35	
12	0	0	0	0	28	31	454	307	2	35	
13	0	0	0	0	28	31	454	307	2	35	
14	0	0	0	0	25	33	452	307	2	35	
15	0	0	0	0	28	31	454	307	2	35	
0	0	0	0	0	28	31	454	307	2	35	
1	0	0	0	0	28	31	451	307	2	35	
2	0	0	0	0	28	31	451	307	2	35	
3	0	0	0	0	28	31	451	307	2	35	
4	0	0	0	0	28	31	451	307	2	35	
5	0	0	0	0	28	31	451	307	2	35	
6	0	0	0	0	30	35	449	307	2	35	
7	0	0	0	0	28	31	448	307	2	35	
8	0	0	0	0	28	31	448	307	2	35	
9	0	0	0	0	28	31	448	307	2	35	
10	0	0	0	0	25	31	448	307	2	35	
11	0	0	0	0	28	33	448	307	2	35	
12	0	0	0	0	28	31	444	310	2	35	
13	0	0	0	0	28	31	444	310	2	35	
14	0	0	0	0	28	33	444	310	2	35	
15	0	0	0	0	28	31	444	310	2	35	
0	0	0	0	0	28	31	444	312	2	35	
1	0	0	0	0	28	31	444	312	2	35	
2	0	0	0	0	28	31	444	312	2	35	
3	0	0	0	0	25	33	448	312	2	35	
4	0	0	0	0	28	31	448	312	2	35	
5	0	0	0	0	28	31	448	312	2	35	
6	0	0	0	0	28	35	448	312	2	35	
7	0	0	0	0	30	35	448	312	2	35	
8	0	0	0	0	28	31	448	312	2	35	
9	0	0	0	0	28	31	449	312	2	35	
10	0	0	0	0	28	31	449	312	2	35	
11	0	0	0	0	28	33	451	312	2	35	
12	0	0	0	0	28	31	451	312	2	35	
13	0	0	0	0	28	31	452	312	2	35	
14	0	0	0	0	28	33	455	312	2	35	
15	0	0	0	0	28	31	455	312	2	35	
0	0	0	0	0	28	31	455	312	2	35	
1	0	0	0	0	28	33	460	312	2	35	
2	0	0	0	0	30	35	460	312	2	35	
3	0	0	0	0	28	31	463	312	2	35	
4	0	0	0	0	28	31	463	312	2	35	
5	0	0	0	0	28	31	467	312	2	35	
6	0	0	0	0	28	31	472	312	2	35	
7	0	0	0	0	28	31	472	312	2	35	
8	0	0	0	0	28	33	476	312	2	35	
9	0	0	0	0	28	31	480	312	2	35	
10	0	0	0	0	28	31	480	310	2	35	
11	0	0	0	0	28	31	483	310	2	35	
12	0	0	0	0	28	33	483	310	2	35	
13	0	0	0	0	28	33	487	310	2	35	
14	0	0	0	0	28	31	487	310	2	35	
15	0	0	0	0	28	31	489	310	2	35	
0	0	0	0	0	30	35	492	310	2	35	
1	0	0	0	0	28	31	494	310	2	35	
2	0	0	0	0	28	33	496	310	2	35	
3	0	0	0	0	28	31	496	310	2	35	
4	0	0	0	0	28	33	497	310	2	35	
5	0	0	0	0	28	33	499	310	2	35	
6	0	0	0	0	28	33	504	310	2	35	
7	0	0	0	0	30	35	504	310	2	35	
8	0	0	0	0	28	31	508	310	2	35	
9	0	0	0	0	30	35	510	310	2	35	
10	0	0	0	0	28	33	512	310	2	35	
11	0	0	0	0	28	33	513	310	2	35	
12	0	0	0	0	28	33	515	310	2	35	
13	0	0	0	0	28	33	519	310	2	35	
14	0	0	0	0	28	33	519	310	2	35	
15	0	0	0	0	28	31	519	310	2	35	
0	0	0	0	0	28	31	524	310	2	35	
1	0	0	0	0	28	31	524	310	2	35	
2	0	0	0	0	28	33	524	308	2	35	
3	0	0	0	0	28	31	526	307	2	35	
4	0	0	0	0	28	31	526	307	2	35	
5	0	0	0	0	28	31	527	307	2	35	
6	0	0	0	0	28	33	527	307	2	35	
7	0	0	0	0	28	31	527	307	2	35	
8	0	0	0	0	28	33	527	307	2	35	
9	0	0	0	0	28	31	529	307	2	35	
10	0	0	0	0	28	33	531	310	2	35	
11	0	0	0	0	28	35	532	310	2	35	
12	0	0	0	0	28	31	536	310	2	35	
13	0	0	0	0	28	33	536	310	2	35	
14	0	0	0	0	28	33	537	312	2	35	
15	0	0	0	0	28	31	540	310	2	35	
0	0	0	0	0	28	33	540	310	2	35	
1	0	0	0	0	28	31	542	310	2	35	
2	0	0	0	0	28	33	543	312	2	35	
3	0	0	0	0	28	33	543	312	2	35	
4	0	0	0	0	28	33	543	312	2	35	
5	0	0	0	0	28	31	543	312	2	35	
6	0	0	0	0	28	35	543	312	2	35	
7	0	0	0	0	28	33	543	312	2	35	
8	0	0	0	0	28	31	543	312	2	35	
9	0	0	0	0	28	31	543	312	2	35	
10	0	0	0	0	28	31	543	312	2	35	
11	0	0	0	0	28	33	543	312	2	35	
12	0	0	0	0	30	35	543	312	2	35	
13	0	0	0	0	28	33	543	312	2	35	
14	0	0	0	0	28	35	543	312	2	35	
15	0	0	0	0	28	31	543	312	2	35	
0	0	0	0	0	28	35	543	312	2	35	
1	0	0	0	0	28	31	543	312	2	35	
2	0	0	0	0	28	33	543	312	2	35	
3	0	0	0	0	28	31	545	312	2	35	
4	0	0	0	0	28	33	547	312	2	35	
5	0	0	0	0	30	35	547	312	2	35	
6	0	0	0	0	28	31	547	312	2	35	
7	0	0	0	0	28	33	547	312	2	35	
8	0	0	0	0	28	33	547	312	2	35	
9	0	0	0	0	28	31	547	312	2	35	
10	0	0	0	0	28	31	545	312	2	35	
11	0	0	0	0	28	31	543	310	2	35	
12	0	0	0	0	28	31	543	310	2	35	
13	0	0	0	0	28	33	543	310	2	35	
14	0	0	0	0	28	31	543	310	2	35	
15	0	0	0	0	28	31	543	310	2	35	
0	0	0	0	0	28	31	543	310	2	35	
1	0	0	0	0	30	35	543	310	2	35	
2	0	0	0	0	28	33	543	310	2	35	
3	0	0	0	0	28	31	543	312	2	35	
4	0	0	0	0	28	33	543	312	2	35	
5	0	0	0	0	28	31	543	312	2	35	
6	0	0	0	0	28	33	547	312	2	35	
7	0	0	0	0	28	31	547	312	2	35	
8	0	0	0	0	28	31	547	312	2	35	
9	0	0	0	0	28	31	547	312	2	35	
10	0	0	0	0	28	31	547	312	2	35	
11	0	0	0	0	28	31	547	312	2	35	
12	0	0	0	0	28	31	547	312	2	35	
13	0	0	0	0	30	35	547	312	2	35	
14	0	0	0	0	28	33	547	312	2	35	
15	0	0	0	0	28	31	547	312	2	35	
0	0	0	0	0	28	35	545	312	2	35	
1	0	0	0	0	28	33	543	312	2	35	
2	0	0	0	0	28	33	543	312	2	35	
3	0	0	0	0	28	31	543	312	2	35	
4	0	0	0	0	28	33	543	312	2	35	
5	0	0	0	0	28	31	543	312	2	35	
6	0	0	0	0	28	31	543	312	2	35	
7	0	0	0	0	28	31	543	312	2	35	
8	0	0	0	0	28	33	543	312	2	35	
9	0	0	0	0	28	31	543	312	2	35	
10	0	0	0	0	30	35	543	312	2	35	
11	0	0	0	0	28	35	543	312	2	35	
12	0	0	0	0	28	31	543	312	2	35	
13	0	0	0	0	28	31	545	312	2	35	
14	0	0	0	0	28	31	547	312	2	35	
15	0	0	0	0	28	31	547	312	2	35	
0	0	0	0	0	28	31	547	312	2	35	
1	0	0	0	0	30	35	543	312	2	35	
2	0	0	0	0	28	33	543	312	2	35	
3	0	0	0	0	28	31	543	310	2	35	
4	0	0	0	0	28	33	543	310	2	35	
5	0	0	0	0	28	31	543	310	2	35	
6	0	0	0	0	28	35	543	307	2	35	
7	0	0	0	0	28	31	543	307	2	35	
8	0	0	0	0	28	33	543	307	2	35	
9	0	0	0	0	28	33	543	307	2	35	
10	0	0	0	0	28	31	543	307	2	35	
11	0	0	0	0	28	31	543	307	2	35	
12	0	0	0	0	30	35	543	307	2	35	
13	0	0	0	0	28	31	543	307	2	35	
14	0	0	0	0	28	33	543	307	2	35	
15	0	0	0	0	28	31	543	307	2	35	
0	0	0	0	0	28	35	543	307	2	35	
1	0	0	0	0	28	31	543	307	2	35	
2	0	0	0	0	28	33	543	310	2	35	
3	0	0	0	0	28	31	543	310	2	35	
4	0	0	0	0	28	31	543	312	2	35	
5	0	0	0	0	28	31	543	312	2	35	
6	0	0	0	0	28	31	542	312	2	35	
7	0	0	0	0	28	33	542	312	2	35	
8	0	0	0	0	28	33	540	312	2	35	
9	0	0	0	0	28	31	540	312	2	35	
10	0	0	0	0	28	33	540	312	2	35	
11	0	0	0	0	28	31	540	312	2	35	
12	0	0	0	0	28	31	540	312	2	35	
13	0	0	0	0	28	31	540	312	2	35	
14	0	0	0	0	28	31	540	312	2	35	
15	0	0	0	0	28	31	540	312	2	35	
0	0	0	0	0	28	31	540	312	2	35	
1	0	0	0	0	28	33	540	312	2	35	
2	0	0	0	0	28	33	540	312	2	35	
3	0	0	0	0	25	31	540	312	2	35	
4	0	0	0	0	28	33	542	312	2	35	
5	0	0	0	0	28	31	542	312	2	35	
6	0	0	0	0	28	33	540	310	2	35	
7	0	0	0	0	28	31	542	310	2	35	
8	0	0	0	0	28	31	540	310	2	35	
9	0	0	0	0	28	33	540	310	2	35	
10	0	0	0	0	28	33	540	310	2	35	
11	0	0	0	0	28	31	540	307	2	35	
12	0	0	0	0	28	31	537	307	2	35	
13	0	0	0	0	28	33	536	308	2	35	
14	0	0	0	0	28	35	536	307	2	35	
15	0	0	0	0	25	31	536	307	2	35	
0	0	0	0	0	28	35	536	308	2	35	
1	0	0	0	0	28	35	536	310	2	35	
2	0	0	0	0	30	35	536	310	2	35	
3	0	0	0	0	28	31	536	310	2	35	
4	0	0	0	0	28	31	536	310	2	35	
5	0	0	0	0	28	31	536	310	2	35	
6	0	0	0	0	30	35	536	310	2	35	
7	0	0	0	0	28	33	536	310	2	35	
8	0	0	0	0	28	33	536	312	2	35	
9	0	0	0	0	28	31	536	312	2	35	
10	0	0	0	0	28	33	536	312	2	35	
11	0	0	0	0	28	31	536	312	2	35	
12	0	0	0	0	28	33	536	312	2	35	
13	0	0	0	0	28	31	536	312	2	35	
14	0	0	0	0	28	31	536	312	2	35	
15	0	0	0	0	28	33	534	312	2	35	
0	0	0	0	0	28	31	532	312	2	35	
1	0	0	0	0	28	31	531	312	2	35	
2	0	0	0	0	28	33	531	312	2	35	
3	0	0	0	0	28	35	531	312	2	35	
4	0	0	0	0	28	33	531	312	2	35	
5	0	0	0	0	30	35	531	312	2	35	
6	0	0	0	0	28	31	531	312	2	35	
7	0	0	0	0	28	33	531	312	2	35	
8	0	0	0	0	28	31	531	312	2	35	
9	0	0	0	0	28	33	531	312	2	35	
10	0	0	0	0	28	31	531	312	2	35	
11	0	0	0	0	28	31	534	310	2	35	
12	0	0	0	0	28	31	534	310	2	35	
13	0	0	0	0	28	31	534	312	2	35	
14	0	0	0	0	25	33	536	310	2	35	
15	0	0	0	0	28	31	534	310	2	35	
0	0	0	0	0	28	31	534	310	2	35	
1	0	0	0	0	28	33	531	310	2	35	
2	0	0	0	0	28	33	531	310	2	35	
3	0	0	0	0	28	31	531	310	2	35	
4	0	0	0	0	28	31	531	310	2	35	
5	0	0	0	0	28	31	531	310	2	35	
6	0	0	0	0	28	31	529	310	2	35	
7	0	0	0	0	28	31	529	310	2	35	
8	0	0	0	0	28	33	527	310	2	35	
9	0	0	0	0	28	31	527	310	2	35	
10	0	0	0	0	30	31	527	310	2	35	
11	0	0	0	0	28	31	529	312	2	35	
12	0	0	0	0	28	31	529	312	2	35	
13	0	0	0	0	28	33	531	312	2	35	
14	0	0	0	0	28	31	531	312	2	35	
15	0	0	0	0	28	31	531	312	2	35	
0	0	0	0	0	28	31	531	312	2	35	
1	0	0	0	0	28	33	531	312	2	35	
2	0	0	0	0	28	33	531	312	2	35	
3	0	0	0	0	30	33	531	312	2	35	
4	0	0	0	0	28	31	531	312	2	35	
5	0	0	0	0	28	33	531	312	2	35	
6	0	0	0	0	30	33	529	312	2	35	
7	0	0	0	0	28	33	527	312	2	35	
8	0	0	0	0	28	31	527	312	2	35	
9	0	0	0	0	28	31	527	312	2	35	
10	0	0	0	0	28	33	527	312	2	35	
11	0	0	0	0	28	31	527	312	2	35	
12	0	0	0	0	28	31	527	312	2	35	
13	0	0	0	0	30	35	527	312	2	35	
14	0	0	0	0	28	33	527	312	2	35	
15	0	0	0	0	28	31	527	312	2	35	
0	0	0	0	0	28	31	527	310	2	35	
1	0	0	0	0	28	35	527	310	2	35	
2	0	0	0	0	28	33	527	307	2	35	
3	0	0	0	0	28	31	527	307	2	35	
4	0	0	0	0	28	31	529	307	2	35	
5	0	0	0	0	28	31	529	307	2	35	
6	0	0	0	0	28	31	529	307	2	35	
7	0	0	0	0	28	33	529	307	2	35	
8	0	0	0	0	24	33	529	307	2	35	
9	0	0	0	0	28	31	527	307	2	35	
10	0	0	0	0	28	31	527	307	2	35	
11	0	0	0	0	28	35	527	307	2	35	
12	0	0	0	0	28	31	527	307	2	35	
13	0	0	0	0	28	31	527	307	2	35	
14	0	0	0	0	28	31	527	308	2	35	
15	0	0	0	0	28	31	527	310	2	35	
0	0	0	0	0	28	31	527	310	2	35	
1	0	0	0	0	28	33	527	310	2	35	
2	0	0	0	0	28	33	527	310	2	35	
3	0	0	0	0	25	31	529	310	2	35	
4	0	0	0	0	28	33	531	310	2	35	
5	0	0	0	0	28	33	531	310	2	35	
6	0	0	0	0	28	31	531	310	2	35	
7	0	0	0	0	28	31	534	310	2	35	
8	0	0	0	0	28	33	536	310	2	35	
9	0	0	0	0	28	33	536	310	2	35	
10	0	0	0	0	28	31	536	310	2	35	
11	0	0	0	0	30	35	536	310	2	35	
12	0	0	0	0	28	33	536	310	2	35	
13	0	0	0	0	28	33	534	310	2	35	
14	0	0	0	0	28	33	531	310	2	35	
15	0	0	0	0	28	31	531	312	2	35	
0	0	0	0	0	28	35	531	312	2	35	
1	0	0	0	0	30	33	529	312	2	35	
2	0	0	0	0	30	35	529	312	2	35	
3	0	0	0	0	28	31	527	312	2	35	
4	0	0	0	0	28	33	527	312	2	35	
5	0	0	0	0	28	33	527	312	2	35	
6	0	0	0	0	28	31	529	310	2	35	
7	0	0	0	0	30	35	529	310	2	35	
8	0	0	0	0	28	33	531	310	2	35	
9	0	0	0	0	28	33	531	310	2	35	
10	0	0	0	0	28	33	531	310	2	35	
11	0	0	0	0	28	33	531	308	2	35	
12	0	0	0	0	28	33	531	308	2	35	
13	0	0	0	0	28	33	532	307	2	35	
14	0	0	0	0	28	33	534	307	2	35	
15	0	0	0	0	28	33	534	307	2	35	
0	0	0	0	0	28	31	532	307	2	35	
1	0	0	0	0	28	31	531	307	2	35	
2	0	0	0	0	28	33	531	307	2	35	
3	0	0	0	0	28	31	531	307	2	35	
4	0	0	0	0	28	33	531	307	2	35	
5	0	0	0	0	28	33	531	307	2	35	
6	0	0	0	0	28	31	531	307	2	35	
7	0	0	0	0	28	31	529	308	2	35	
8	0	0	0	0	28	31	529	310	2	35	
9	0	0	0	0	28	31	529	310	2	35	
10	0	0	0	0	28	31	529	312	2	35	
11	0	0	0	0	28	33	531	312	2	35	
12	0	0	0	0	28	33	531	312	2	35	
13	0	0	0	0	28	33	531	312	2	35	
14	0	0	0	0	28	33	531	312	2	35	
15	0	0	0	0	28	31	532	312	2	35	
0	0	0	0	0	28	31	534	312	2	35	
1	0	0	0	0	28	33	536	312	2	35	
2	0	0	0	0	28	33	536	312	2	35	
3	0	0	0	0	28	33	536	312	2	35	
4	0	0	0	0	28	33	534	312	2	35	
5	0	0	0	0	28	33	531	312	2	35	
6	0	0	0	0	28	33	531	312	2	35	
7	0	0	0	0	28	33	531	312	2	35	
8	0	0	0	0	28	33	531	312	2	35	
9	0	0	0	0	28	33	529	312	2	35	
10	0	0	0	0	28	31	529	312	2	35	
11	0	0	0	0	30	35	527	312	2	35	
12	0	0	0	0	28	33	527	312	2	35	
13	0	0	0	0	28	31	527	312	2	35	
14	0	0	0	0	28	31	527	312	2	35	
15	0	0	0	0	28	33	529	312	2	35	
0	0	0	0	0	28	33	529	312	2	35	
1	0	0	0	0	28	33	531	312	2	35	
2	0	0	0	0	28	33	531	312	2	35	
3	0	0	0	0	25	31	531	312	2	35	
4	0	0	0	0	28	33	531	312	2	35	
5	0	0	0	0	28	31	534	310	2	35	
6	0	0	0	0	28	31	534	310	2	35	
7	0	0	0	0	28	31	534	307	2	35	
8	0	0	0	0	28	31	532	307	2	35	
9	0	0	0	0	28	33	531	307	2	35	
10	0	0	0	0	28	33	531	307	2	35	
11	0	0	0	0	28	31	531	307	2	35	
12	0	0	0	0	28	31	531	305	2	35	
13	0	0	0	0	28	31	529	305	2	35	
14	0	0	0	0	28	33	527	305	2	35	
15	0	0	0	0	28	31	527	305	2	35	
0	0	0	0	0	28	31	527	305	2	35	
1	0	0	0	0	28	33	527	305	2	35	
2	0	0	0	0	28	33	527	305	2	35	
3	0	0	0	0	28	31	527	305	2	35	
4	0	0	0	0	28	31	529	305	2	35	
5	0	0	0	0	28	31	529	307	2	35	
6	0	0	0	0	28	33	531	307	2	35	
7	0	0	0	0	28	31	531	307	2	35	
8	0	0	0	0	28	35	531	307	2	35	
9	0	0	0	0	28	31	531	307	2	35	
10	0	0	0	0	28	35	531	307	2	35	
11	0	0	0	0	28	31	531	310	2	35	
12	0	0	0	0	28	31	531	312	2	35	
13	0	0	0	0	28	31	531	312	2	35	
14	0	0	0	0	28	31	531	312	2	35	
15	0	0	0	0	28	31	529	312	2	35	
0	0	0	0	0	30	35	527	312	2	35	
1	0	0	0	0	28	33	527	312	2	35	
2	0	0	0	0	30	35	527	312	2	35	
3	0	0	0	0	28	35	527	312	2	35	
4	0	0	0	0	28	35	527	312	2	35	
5	0	0	0	0	28	33	527	313	2	35	
6	0	0	0	0	28	33	527	313	2	35	
7	0	0	0	0	28	33	529	313	2	35	
8	0	0	0	0	28	33	529	313	2	35	
9	0	0	0	0	30	35	531	313	2	35	
10	0	0	0	0	28	33	531	313	2	35	
11	0	0	0	0	28	31	531	313	2	35	
12	0	0	0	0	28	33	531	313	2	35	
13	0	0	0	0	28	33	531	313	2	35	
14	0	0	0	0	28	33	531	312	2	35	
15	0	0	0	0	28	31	531	312	2	35	
0	0	0	0	0	28	33	531	312	2	35	
1	0	0	0	0	28	33	531	312	2	35	
2	0	0	0	0	28	33	531	312	2	35	
3	0	0	0	0	30	35	531	312	2	35	
4	0	0	0	0	28	33	531	312	2	35	
5	0	0	0	0	28	33	529	312	2	35	
6	0	0	0	0	28	33	527	312	2	35	
7	0	0	0	0	30	35	527	312	2	35	
8	0	0	0	0	28	33	527	312	2	35	
9	0	0	0	0	28	31	527	312	2	35	
10	0	0	0	0	28	33	527	312	2	35	
11	0	0	0	0	28	31	527	312	2	35	
12	0	0	0	0	30	35	527	312	2	35	
13	0	0	0	0	28	31	527	312	2	35	
14	0	0	0	0	30	35	527	312	2	35	
15	0	0	0	0	28	31	529	312	2	35	
0	0	0	0	0	28	31	529	312	2	35	
1	0	0	0	0	28	31	529	312	2	35	
2	0	0	0	0	30	35	529	312	2	35	
3	0	0	0	0	25	31	529	310	2	35	
4	0	0	0	0	28	31	527	310	2	35	
5	0	0	0	0	30	33	527	310	2	35	
6	0	0	0	0	28	31	527	310	2	35	
7	0	0	0	0	28	33	527	310	2	35	
8	0	0	0	0	28	31	527	310	2	35	
9	0	0	0	0	28	31	526	310	2	35	
10	0	0	0	0	28	33	526	312	2	35	
11	0	0	0	0	28	31	524	312	2	35	
12	0	0	0	0	28	31	524	312	2	35	
13	0	0	0	0	28	33	524	312	2	35	
14	0	0	0	0	28	33	524	312	2	35	
15	0	0	0	0	28	31	526	312	2	35	
0	0	0	0	0	28	35	526	312	2	35	
1	0	0	0	0	28	31	527	312	2	35	
2	0	0	0	0	31	35	527	312	2	35	
3	0	0	0	0	28	33	527	312	2	35	
4	0	0	0	0	28	33	527	312	2	35	
5	0	0	0	0	28	33	527	312	2	35	
6	0	0	0	0	28	31	527	312	2	35	
7	0	0	0	0	28	31	529	312	2	35	
8	0	0	0	0	28	33	529	312	2	35	
9	0	0	0	0	28	31	529	312	2	35	
10	0	0	0	0	28	31	527	312	2	35	
11	0	0	0	0	28	35	527	312	2	35	
12	0	0	0	0	28	33	527	312	2	35	
13	0	0	0	0	28	31	527	312	2	35	
14	0	0	0	0	28	33	527	310	2	35	
15	0	0	0	0	28	31	527	310	2	35	
0	0	0	0	0	28	31	527	310	2	35	
1	0	0	0	0	28	33	527	310	2	35	
2	0	0	0	0	30	35	527	310	2	35	
3	0	0	0	0	28	33	527	310	2	35	
4	0	0	0	0	28	33	529	310	2	35	
5	0	0	0	0	30	31	529	310	2	35	
6	0	0	0	0	28	31	531	310	2	35	
7	0	0	0	0	28	33	531	310	2	35	
8	0	0	0	0	28	33	531	308	2	35	
9	0	0	0	0	28	31	531	307	2	35	
10	0	0	0	0	28	31	531	307	2	35	
11	0	0	0	0	28	31	531	307	2	35	
12	0	0	0	0	28	31	531	307	2	35	
13	0	0	0	0	28	31	529	307	2	35	
14	0	0	0	0	28	33	527	307	2	35	
15	0	0	0	0	28	31	527	307	2	35	
0	0	0	0	0	28	31	527	307	2	35	
1	0	0	0	0	28	33	527	307	2	35	
2	0	0	0	0	30	35	527	307	2	35	
3	0	0	0	0	28	33	527	307	2	35	
4	0	0	0	0	28	31	527	307	2	35	
5	0	0	0	0	28	33	527	307	2	35	
6	0	0	0	0	28	31	527	307	2	35	
7	0	0	0	0	28	33	527	307	2	35	
8	0	0	0	0	28	33	527	307	2	35	
9	0	0	0	0	28	31	527	307	2	35	
10	0	0	0	0	28	31	527	307	2	35	
11	0	0	0	0	28	33	527	307	2	35	
12	0	0	0	0	28	31	527	307	2	35	
13	0	0	0	0	28	31	527	308	2	35	
14	0	0	0	0	28	33	527	307	2	35	
15	0	0	0	0	28	31	527	310	2	35	
0	0	0	0	0	30	35	526	310	2	35	
1	0	0	0	0	28	33	526	310	2	35	
2	0	0	0	0	28	33	526	312	2	35	
3	0	0	0	0	25	31	524	312	2	35	
4	0	0	0	0	28	33	524	312	2	35	
5	0	0	0	0	28	33	524	312	2	35	
6	0	0	0	0	28	31	524	312	2	35	
7	0	0	0	0	30	35	521	312	2	35	
8	0	0	0	0	28	33	521	312	2	35	
9	0	0	0	0	28	33	524	312	2	35	
10	0	0	0	0	28	31	524	312	2	35	
11	0	0	0	0	28	33	524	312	2	35	
12	0	0	0	0	28	31	524	312	2	35	
13	0	0	0	0	28	33	524	312	2	35	
14	0	0	0	0	28	33	524	312	2	35	
15	0	0	0	0	30	33	524	312	2	35	
0	0	0	0	0	28	33	524	312	2	35	
1	0	0	0	0	30	35	524	312	2	35	
2	0	0	0	0	28	33	521	312	2	35	
3	0	0	0	0	28	33	519	312	2	35	
4	0	0	0	0	28	33	519	312	2	35	
5	0	0	0	0	28	33	519	312	2	35	
6	0	0	0	0	28	33	518	312	2	35	
7	0	0	0	0	28	33	515	312	2	35	
8	0	0	0	0	28	33	513	312	2	35	
9	0	0	0	0	28	31	513	312	2	35	
10	0	0	0	0	28	31	512	312	2	35	
11	0	0	0	0	28	31	512	312	2	35	
12	0	0	0	0	28	33	512	312	2	35	
13	0	0	0	0	28	31	512	312	2	35	
14	0	0	0	0	28	31	512	312	2	35	
15	0	0	0	0	30	33	513	312	2	35	
0	0	0	0	0	28	33	513	312	2	35	
1	0	0	0	0	28	33	515	312	2	35	
2	0	0	0	0	28	33	515	312	2	35	
3	0	0	0	0	28	35	515	312	2	35	
4	0	0	0	0	28	33	515	312	2	35	
5	0	0	0	0	28	35	515	312	2	35	
6	0	0	0	0	28	31	515	312	2	35	
7	0	0	0	0	28	33	515	312	2	35	
8	0	0	0	0	28	31	513	312	2	35	
9	0	0	0	0	28	33	512	312	2	35	
10	0	0	0	0	28	33	511	312	2	35	
11	0	0	0	0	28	31	510	312	2	35	
12	0	0	0	0	28	31	508	312	2	35	
13	0	0	0	0	28	33	505	312	2	35	
14	0	0	0	0	28	33	504	312	2	35	
15	0	0	0	0	28	31	504	312	2	35	
0	0	0	0	0	28	35	504	312	2	35	
1	0	0	0	0	28	31	504	312	2	35	
2	0	0	0	0	28	33	504	312	2	35	
3	0	0	0	0	28	31	504	312	2	35	
4	0	0	0	0	28	33	504	312	2	35	
5	0	0	0	0	28	33	504	310	2	35	
6	0	0	0	0	28	31	504	310	2	35	
7	0	0	0	0	28	31	504	310	2	35	
8	0	0	0	0	28	35	504	310	2	35	
9	0	0	0	0	28	31	504	310	2	35	
10	0	0	0	0	28	35	504	307	2	35	
11	0	0	0	0	30	33	504	307	2	35	
12	0	0	0	0	28	31	504	307	2	35	
13	0	0	0	0	28	33	504	307	2	35	
14	0	0	0	0	28	33	502	307	2	35	
15	0	0	0	0	28	31	499	307	2	35	
0	0	0	0	0	28	31	499	307	2	35	
1	0	0	0	0	28	31	497	307	2	35	
2	0	0	0	0	28	33	497	305	2	35	
3	0	0	0	0	28	31	497	305	2	35	
4	0	0	0	0	28	33	497	305	2	35	
5	0	0	0	0	28	31	497	305	2	35	
6	0	0	0	0	28	31	497	305	2	35	
7	0	0	0	0	28	31	499	305	2	35	
8	0	0	0	0	28	31	499	307	2	35	
9	0	0	0	0	28	31	502	307	2	35	
10	0	0	0	0	28	33	504	307	2	35	
11	0	0	0	0	28	31	504	307	2	35	
12	0	0	0	0	28	31	504	307	2	35	
13	0	0	0	0	28	31	505	307	2	35	
14	0	0	0	0	28	33	508	310	2	35	
15	0	0	0	0	28	31	508	310	2	35	
0	0	0	0	0	28	35	510	312	2	35	
1	0	0	0	0	28	31	511	312	2	35	
2	0	0	0	0	28	33	511	312	2	35	
3	0	0	0	0	28	33	512	312	2	35	
4	0	0	0	0	28	33	512	312	2	35	
5	0	0	0	0	28	33	513	312	2	35	
6	0	0	0	0	30	34	513	312	2	35	
7	0	0	0	0	28	31	515	312	2	35	
8	0	0	0	0	28	33	515	312	2	35	
9	0	0	0	0	28	33	519	312	2	35	
10	0	0	0	0	30	35	519	312	2	35	
11	0	0	0	0	28	31	519	312	2	35	
12	0	0	0	0	28	33	524	312	2	35	
13	0	0	0	0	30	33	524	312	2	35	
14	0	0	0	0	28	33	527	312	2	35	
15	0	0	0	0	30	33	527	312	2	35	
0	0	0	0	0	28	33	527	312	2	35	
1	0	0	0	0	30	35	529	312	2	35	
2	0	0	0	0	28	33	531	312	2	35	
3	0	0	0	0	25	33	531	312	2	35	
4	0	0	0	0	28	35	531	312	2	35	
5	0	0	0	0	28	31	531	312	2	35	
6	0	0	0	0	28	35	531	312	2	35	
7	0	0	0	0	28	33	529	312	2	35	
8	0	0	0	0	28	33	527	312	2	35	
9	0	0	0	0	28	33	527	312	2	35	
10	0	0	0	0	28	31	527	312	2	35	
11	0	0	0	0	28	31	527	312	2	35	
12	0	0	0	0	28	31	527	312	2	35	
13	0	0	0	0	28	33	527	312	2	35	
14	0	0	0	0	28	35	527	310	2	35	
15	0	0	0	0	28	31	527	310	2	35	
0	0	0	0	0	30	34	527	310	2	35	
1	0	0	0	0	28	35	527	310	2	35	
2	0	0	0	0	28	33	527	307	2	35	
3	0	0	0	0	28	31	529	307	2	35	
4	0	0	0	0	28	33	529	307	2	35	
5	0	0	0	0	28	33	531	307	2	35	
6	0	0	0	0	28	31	531	307	2	35	
7	0	0	0	0	28	31	531	307	2	35	
8	0	0	0	0	28	33	531	307	2	35	
9	0	0	0	0	28	31	529	307	2	35	
10	0	0	0	0	28	33	529	307	2	35	
11	0	0	0	0	28	33	527	307	2	35	
12	0	0	0	0	28	33	527	307	2	35	
13	0	0	0	0	28	31	527	307	2	35	
14	0	0	0	0	28	31	527	307	2	35	
15	0	0	0	0	28	31	527	307	2	35	
0	0	0	0	0	28	33	527	307	2	35	
1	0	0	0	0	28	33	527	307	2	35	
2	0	0	0	0	30	35	527	307	2	35	
3	0	0	0	0	30	31	527	307	2	35	
4	0	0	0	0	28	33	527	310	2	35	
5	0	0	0	0	28	31	529	310	2	35	
6	0	0	0	0	30	35	529	310	2	35	
7	0	0	0	0	28	33	531	310	2	35	
8	0	0	0	0	28	33	531	310	2	35	
9	0	0	0	0	28	33	531	312	2	35	
10	0	0	0	0	28	31	534	312	2	35	
11	0	0	0	0	28	33	534	312	2	35	
12	0	0	0	0	30	35	531	312	2	35	
13	0	0	0	0	28	33	531	310	2	35	
14	0	0	0	0	28	35	531	310	2	35	
15	0	0	0	0	28	31	531	310	2	35	
0	0	0	0	0	28	35	531	312	2	35	
1	0	0	0	0	28	31	531	312	2	35	
2	0	0	0	0	28	33	529	312	2	35	
3	0	0	0	0	28	33	529	312	2	35	
4	0	0	0	0	30	35	527	312	2	35	
5	0	0	0	0	30	35	527	312	2	35	
6	0	0	0	0	30	35	527	312	2	35	
7	0	0	0	0	30	35	529	312	2	35	
8	0	0	0	0	28	33	529	312	2	35	
9	0	0	0	0	28	33	531	312	2	35	
10	0	0	0	0	28	31	531	312	2	35	
11	0	0	0	0	28	33	531	312	2	35	
12	0	0	0	0	28	33	536	312	2	35	
13	0	0	0	0	28	31	536	312	2	35	
14	0	0	0	0	30	35	536	312	2	35	
15	0	0	0	0	28	31	537	312	2	35	
0	0	0	0	0	28	31	540	310	2	35	
1	0	0	0	0	28	35	542	307	2	35	
2	0	0	0	0	28	33	543	307	2	35	
3	0	0	0	0	25	31	543	307	2	35	
4	0	0	0	0	28	33	543	307	2	35	
5	0	0	0	0	28	31	547	307	2	35	
6	0	0	0	0	28	35	547	307	2	35	
7	0	0	0	0	28	33	547	307	2	35	
8	0	0	0	0	28	33	543	307	2	35	
9	0	0	0	0	28	33	543	307	2	35	
10	0	0	0	0	28	33	542	307	2	35	
11	0	0	0	0	28	33	537	307	2	35	
12	0	0	0	0	28	31	531	310	2	35	
13	0	0	0	0	30	35	527	310	2	35	
14	0	0	0	0	28	33	519	312	2	35	
15	0	0	0	0	30	31	508	312	2	35	
0	0	0	0	0	28	31	496	312	2	35	
1	0	0	0	0	28	31	481	312	2	35	
2	0	0	0	0	30	35	467	312	2	35	
3	0	0	0	0	30	33	448	312	2	35	
4	0	0	0	0	28	31	430	312	2	35	
5	0	0	0	0	28	31	408	313	2	35	
6	0	0	0	0	28	31	384	313	2	35	
7	0	0	0	0	28	31	359	313	2	35	
8	0	0	0	0	28	33	335	312	2	35	
9	0	0	0	0	28	31	312	312	2	35	
10	0	0	0	0	30	31	286	312	2	35	
11	0	0	0	0	28	33	263	312	2	35	
12	0	0	0	0	28	31	240	312	2	35	
13	0	0	0	0	28	31	220	312	2	35	
14	0	0	0	0	28	31	199	312	2	35	
15	0	0	0	0	28	31	185	312	2	35	
0	0	0	0	0	28	31	174	312	2	35	
1	0	0	0	0	28	31	163	312	2	35	
2	0	0	0	0	30	31	159	312	2	35	
3	0	0	0	0	28	31	156	312	2	35	
4	0	0	0	0	27	31	156	310	2	35	
5	0	0	0	0	28	31	159	310	2	35	
6	0	0	0	0	30	33	167	310	2	35	
7	0	0	0	0	28	31	179	310	2	35	
8	0	0	0	0	28	31	193	310	2	35	
9	0	0	0	0	28	31	211	310	2	35	
10	0	0	0	0	28	31	231	310	2	35	
11	0	0	0	0	28	31	255	310	2	35	
12	0	0	0	0	30	33	280	312	2	35	
13	0	0	0	0	28	31	307	312	2	35	
14	0	0	0	0	28	35	335	312	2	35	
15	0	0	0	0	28	33	361	310	2	35	
0	0	0	0	0	28	35	391	310	2	35	
1	0	0	0	0	28	35	415	310	2	35	
2	0	0	0	0	28	33	444	310	2	35	
3	0	0	0	0	28	33	467	310	2	35	
4	0	0	0	0	28	33	487	310	2	35	
5	0	0	0	0	28	33	510	310	2	35	
6	0	0	0	0	28	33	526	310	2	35	
7	0	0	0	0	28	31	537	308	2	35	
8	0	0	0	0	28	31	547	307	2	35	
9	0	0	0	0	28	33	551	307	2	35	
10	0	0	0	0	28	33	556	307	2	35	
11	0	0	0	0	28	33	556	307	2	35	
12	0	0	0	0	28	33	551	307	2	35	
13	0	0	0	0	28	33	547	307	2	35	
14	0	0	0	0	28	31	540	307	2	35	
15	0	0	0	0	28	31	534	307	2	35	
0	0	0	0	0	28	33	526	307	2	35	
1	0	0	0	0	30	35	518	307	2	35	
2	0	0	0	0	28	33	511	307	2	35	
3	0	0	0	0	28	33	504	307	2	35	
4	0	0	0	0	28	33	499	307	2	35	
5	0	0	0	0	28	31	496	307	2	35	
6	0	0	0	0	28	35	492	307	2	35	
7	0	0	0	0	28	33	492	310	2	35	
8	0	0	0	0	28	31	492	307	2	35	
9	0	0	0	0	28	33	492	310	2	35	
10	0	0	0	0	28	31	496	310	2	35	
11	0	0	0	0	28	31	496	310	2	35	
12	0	0	0	0	28	31	499	310	2	35	
13	0	0	0	0	28	33	504	310	2	35	
14	0	0	0	0	28	33	505	310	2	35	
15	0	0	0	0	28	31	508	310	2	35	
0	0	0	0	0	30	35	511	307	2	35	
1	0	0	0	0	28	31	513	310	2	35	
2	0	0	0	0	30	35	515	310	2	35	
3	0	0	0	0	30	35	518	310	2	35	
4	0	0	0	0	28	33	519	310	2	35	
5	0	0	0	0	30	35	519	310	2	35	
6	0	0	0	0	28	33	519	310	2	35	
7	0	0	0	0	28	33	519	312	2	35	
8	0	0	0	0	28	33	521	312	2	35	
9	0	0	0	0	28	31	521	312	2	35	
10	0	0	0	0	28	33	524	312	2	35	
11	0	0	0	0	30	35	524	312	2	35	
12	0	0	0	0	28	33	524	312	2	35	
13	0	0	0	0	30	35	524	312	2	35	
14	0	0	0	0	30	35	524	312	2	35	
15	0	0	0	0	30	35	526	312	2	35	
0	0	0	0	0	28	33	526	312	2	35	
1	0	0	0	0	28	33	526	312	2	35	
2	0	0	0	0	28	33	526	312	2	35	
3	0	0	0	0	28	35	526	312	2	35	
4	0	0	0	0	28	35	526	312	2	35	
5	0	0	0	0	28	33	526	312	2	35	
6	0	0	0	0	28	31	524	312	2	35	
7	0	0	0	0	28	33	524	312	2	35	
8	0	0	0	0	28	33	524	312	2	35	
9	0	0	0	0	28	33	524	312	2	35	
10	0	0	0	0	28	33	521	312	2	35	
11	0	0	0	0	30	34	521	312	2	35	
12	0	0	0	0	28	33	519	312	2	35	
13	0	0	0	0	28	33	519	312	2	35	
14	0	0	0	0	28	35	521	310	2	35	
15	0	0	0	0	28	31	521	310	2	35	
0	0	0	0	0	28	31	524	310	2	35	
1	0	0	0	0	30	35	524	308	2	35	
2	0	0	0	0	28	33	524	307	2	35	
3	0	0	0	0	28	33	524	307	2	35	
4	0	0	0	0	28	33	524	307	2	35	
5	0	0	0	0	28	33	524	310	2	35	
6	0	0	0	0	30	35	524	310	2	35	
7	0	0	0	0	28	33	524	310	2	35	
8	0	0	0	0	30	35	524	310	2	35	
9	0	0	0	0	28	31	521	310	2	35	
10	0	0	0	0	28	31	519	312	2	35	
11	0	0	0	0	30	35	519	312	2	35	
12	0	0	0	0	28	33	519	312	2	35	
13	0	0	0	0	30	33	519	312	2	35	
14	0	0	0	0	28	33	518	312	2	35	
15	0	0	0	0	30	33	518	312	2	35	
0	0	0	0	0	28	33	515	312	2	35	
1	0	0	0	0	30	35	515	312	2	35	
2	0	0	0	0	28	33	515	312	2	35	
3	0	0	0	0	27	31	515	312	2	35	
4	0	0	0	0	30	35	515	312	2	35	
5	0	0	0	0	28	31	515	312	2	35	
6	0	0	0	0	28	31	515	312	2	35	
7	0	0	0	0	28	33	515	312	2	35	
8	0	0	0	0	28	33	515	312	2	35	
9	0	0	0	0	28	33	515	312	2	35	
10	0	0	0	0	30	33	515	312	2	35	
11	0	0	0	0	28	31	515	312	2	35	
12	0	0	0	0	28	31	513	312	2	35	
13	0	0	0	0	28	33	513	312	2	35	
14	0	0	0	0	28	35	512	312	2	35	
15	0	0	0	0	28	31	511	312	2	35	
0	0	0	0	0	30	33	511	312	2	35	
1	0	0	0	0	28	35	510	312	2	35	
2	0	0	0	0	28	33	508	312	2	35	
3	0	0	0	0	30	33	508	310	2	35	
4	0	0	0	0	30	33	508	310	2	35	
5	0	0	0	0	30	33	508	310	2	35	
6	0	0	0	0	28	33	505	307	2	35	
7	0	0	0	0	28	33	505	307	2	35	
8	0	0	0	0	30	35	505	307	2	35	
9	0	0	0	0	28	31	505	307	2	35	
10	0	0	0	0	28	33	508	307	2	35	
11	0	0	0	0	28	31	508	307	2	35	
12	0	0	0	0	28	33	508	307	2	35	
13	0	0	0	0	28	31	505	307	2	35	
14	0	0	0	0	28	31	505	307	2	35	
15	0	0	0	0	28	33	504	307	2	35	
0	0	0	0	0	28	31	504	307	2	35	
1	0	0	0	0	28	33	504	307	2	35	
2	0	0	0	0	28	33	504	307	2	35	
3	0	0	0	0	28	33	502	307	2	35	
4	0	0	0	0	30	35	499	308	2	35	
5	0	0	0	0	28	31	497	310	2	35	
6	0	0	0	0	28	31	496	310	2	35	
7	0	0	0	0	30	35	496	312	2	35	
8	0	0	0	0	28	33	496	312	2	35	
9	0	0	0	0	28	33	494	312	2	35	
10	0	0	0	0	28	33	494	312	2	35	
11	0	0	0	0	30	33	494	312	2	35	
12	0	0	0	0	28	31	492	312	2	35	
13	0	0	0	0	28	33	492	312	2	35	
14	0	0	0	0	28	33	492	312	2	35	
15	0	0	0	0	28	31	492	312	2	35	
0	0	0	0	0	28	31	492	312	2	35	
1	0	0	0	0	30	35	492	312	2	35	
2	0	0	0	0	30	35	489	312	2	35	
3	0	0	0	0	30	35	487	312	2	35	
4	0	0	0	0	30	35	487	312	2	35	
5	0	0	0	0	28	33	487	312	2	35	
6	0	0	0	0	30	33	486	312	2	35	
7	0	0	0	0	28	31	483	312	2	35	
8	0	0	0	0	28	33	481	312	2	35	
9	0	0	0	0	28	31	480	312	2	35	
10	0	0	0	0	28	33	480	312	2	35	
11	0	0	0	0	28	31	478	312	2	35	
12	0	0	0	0	28	33	476	312	2	35	
13	0	0	0	0	28	31	476	312	2	35	
14	0	0	0	0	28	31	473	312	2	35	
15	0	0	0	0	28	31	472	312	2	35	
0	0	0	0	0	30	33	472	312	2	35	
1	0	0	0	0	28	33	472	312	2	35	
2	0	0	0	0	28	33	472	312	2	35	
3	0	0	0	0	28	31	472	312	2	35	
4	0	0	0	0	31	35	472	312	2	35	
5	0	0	0	0	28	33	472	312	2	35	
6	0	0	0	0	28	35	472	312	2	35	
7	0	0	0	0	28	33	470	312	2	35	
8	0	0	0	0	28	31	467	312	2	35	
9	0	0	0	0	28	31	467	312	2	35	
10	0	0	0	0	30	33	463	312	2	35	
11	0	0	0	0	28	31	463	312	2	35	
12	0	0	0	0	28	31	462	312	2	35	
13	0	0	0	0	28	31	460	312	2	35	
14	0	0	0	0	28	33	460	312	2	35	
15	0	0	0	0	28	31	455	312	2	35	
0	0	0	0	0	28	33	455	312	2	35	
1	0	0	0	0	28	31	455	312	2	35	
2	0	0	0	0	28	33	454	310	2	35	
3	0	0	0	0	28	33	451	310	2	35	
4	0	0	0	0	30	33	451	310	2	35	
5	0	0	0	0	28	31	451	310	2	35	
6	0	0	0	0	28	31	451	310	2	35	
7	0	0	0	0	28	31	451	310	2	35	
8	0	0	0	0	28	33	449	310	2	35	
9	0	0	0	0	28	31	449	310	2	35	
10	0	0	0	0	28	31	448	307	2	35	
11	0	0	0	0	28	31	448	307	2	35	
12	0	0	0	0	28	33	448	307	2	35	
13	0	0	0	0	28	31	448	307	2	35	
14	0	0	0	0	28	31	444	307	2	35	
15	0	0	0	0	28	31	444	307	2	35	
0	0	0	0	0	28	33	441	307	2	35	
1	0	0	0	0	28	31	440	307	2	35	
2	0	0	0	0	28	33	440	307	2	35	
3	0	0	0	0	28	31	440	307	2	35	
4	0	0	0	0	28	33	440	307	2	35	
5	0	0	0	0	28	31	440	307	2	35	
6	0	0	0	0	28	33	440	307	2	35	
7	0	0	0	0	30	35	440	307	2	35	
8	0	0	0	0	30	35	440	307	2	35	
9	0	0	0	0	28	33	440	307	2	35	
10	0	0	0	0	28	31	440	310	2	35	
11	0	0	0	0	28	33	440	310	2	35	
12	0	0	0	0	28	31	440	310	2	35	
13	0	0	0	0	28	33	440	312	2	35	
14	0	0	0	0	28	33	440	312	2	35	
15	0	0	0	0	28	31	440	312	2	35	
0	0	0	0	0	28	33	440	312	2	35	
1	0	0	0	0	30	35	440	312	2	35	
2	0	0	0	0	28	33	440	312	2	35	
3	0	0	0	0	28	33	440	312	2	35	
4	0	0	0	0	28	33	440	312	2	35	
5	0	0	0	0	28	33	440	312	2	35	
6	0	0	0	0	28	33	440	312	2	35	
7	0	0	0	0	28	33	440	312	2	35	
8	0	0	0	0	28	35	440	312	2	35	
9	0	0	0	0	28	31	441	312	2	35	
10	0	0	0	0	28	33	444	312	2	35	
11	0	0	0	0	30	35	448	312	2	35	
12	0	0	0	0	30	35	448	312	2	35	
13	0	0	0	0	28	33	448	312	2	35	
14	0	0	0	0	28	33	449	312	2	35	
15	0	0	0	0	28	31	451	312	2	35	
0	0	0	0	0	28	31	455	312	2	35	
1	0	0	0	0	30	35	455	312	2	35	
2	0	0	0	0	30	35	457	312	2	35	
3	0	0	0	0	28	31	460	312	2	35	
4	0	0	0	0	28	33	463	312	2	35	
5	0	0	0	0	28	31	463	312	2	35	
6	0	0	0	0	28	31	465	312	2	35	
7	0	0	0	0	28	35	467	312	2	35	
8	0	0	0	0	28	33	470	312	2	35	
9	0	0	0	0	28	33	472	312	2	35	
10	0	0	0	0	28	33	472	312	2	35	
11	0	0	0	0	28	33	476	312	2	35	
12	0	0	0	0	28	33	478	312	2	35	
13	0	0	0	0	28	33	480	310	2	35	
14	0	0	0	0	28	35	481	312	2	35	
15	0	0	0	0	28	31	483	310	2	35	
0	0	0	0	0	28	35	487	310	2	35	
1	0	0	0	0	28	31	487	310	2	35	
2	0	0	0	0	28	33	492	310	2	35	
3	0	0	0	0	28	35	496	310	2	35	
4	0	0	0	0	28	35	496	312	2	35	
5	0	0	0	0	28	33	499	312	2	35	
6	0	0	0	0	28	33	504	310	2	35	
7	0	0	0	0	28	33	504	310	2	35	
8	0	0	0	0	28	33	505	310	2	35	
9	0	0	0	0	28	31	508	310	2	35	
10	0	0	0	0	28	33	510	310	2	35	
11	0	0	0	0	30	35	511	310	2	35	
12	0	0	0	0	28	33	512	310	2	35	
13	0	0	0	0	28	33	512	307	2	35	
14	0	0	0	0	28	31	513	307	2	35	
15	0	0	0	0	28	31	515	307	2	35	
0	0	0	0	0	28	31	518	307	2	35	
1	0	0	0	0	28	35	519	307	2	35	
2	0	0	0	0	28	33	519	310	2	35	
3	0	0	0	0	25	31	519	310	2	35	
4	0	0	0	0	28	33	524	308	2	35	
5	0	0	0	0	28	31	526	310	2	35	
6	0	0	0	0	30	35	527	310	2	35	
7	0	0	0	0	28	33	527	308	2	35	
8	0	0	0	0	28	33	529	310	2	35	
9	0	0	0	0	28	33	531	310	2	35	
10	0	0	0	0	28	33	531	310	2	35	
11	0	0	0	0	28	33	536	310	2	35	
12	0	0	0	0	28	33	536	310	2	35	
13	0	0	0	0	28	33	536	310	2	35	
14	0	0	0	0	28	33	536	310	2	35	
15	0	0	0	0	28	31	536	310	2	35	
0	0	0	0	0	30	33	536	310	2	35	
1	0	0	0	0	28	35	536	310	2	35	
2	0	0	0	0	28	33	537	310	2	35	
3	0	0	0	0	28	33	537	310	2	35	
4	0	0	0	0	28	33	540	310	2	35	
5	0	0	0	0	28	33	540	310	2	35	
6	0	0	0	0	28	33	540	308	2	35	
7	0	0	0	0	28	35	540	308	2	35	
8	0	0	0	0	28	35	542	310	2	35	
9	0	0	0	0	28	33	543	307	2	35	
10	0	0	0	0	28	31	543	307	2	35	
11	0	0	0	0	28	31	543	307	2	35	
12	0	0	0	0	28	33	543	307	2	35	
13	0	0	0	0	28	31	543	307	2	35	
14	0	0	0	0	28	33	543	307	2	35	
15	0	0	0	0	28	31	543	307	2	35	
0	0	0	0	0	28	33	543	307	2	35	
1	0	0	0	0	28	33	543	307	2	35	
2	0	0	0	0	28	33	543	307	2	35	
3	0	0	0	0	28	31	543	307	2	35	
4	0	0	0	0	28	33	543	307	2	35	
5	0	0	0	0	28	31	543	307	2	35	
6	0	0	0	0	28	35	542	307	2	35	
7	0	0	0	0	30	35	542	307	2	35	
8	0	0	0	0	28	33	542	307	2	35	
9	0	0	0	0	28	35	542	307	2	35	
10	0	0	0	0	28	33	543	307	2	35	
11	0	0	0	0	28	33	543	307	2	35	
12	0	0	0	0	28	33	543	310	2	35	
13	0	0	0	0	28	35	543	310	2	35	
14	0	0	0	0	28	35	543	310	2	35	
15	0	0	0	0	28	31	547	310	2	35	
0	0	0	0	0	28	35	547	312	2	35	
1	0	0	0	0	28	31	547	312	2	35	
2	0	0	0	0	28	33	547	312	2	35	
3	0	0	0	0	28	33	547	312	2	35	
4	0	0	0	0	28	33	547	312	2	35	
5	0	0	0	0	28	33	547	312	2	35	
6	0	0	0	0	30	35	547	312	2	35	
7	0	0	0	0	30	35	543	312	2	35	
8	0	0	0	0	28	35	543	312	2	35	
9	0	0	0	0	28	33	543	312	2	35	
10	0	0	0	0	28	33	543	312	2	35	
11	0	0	0	0	28	35	543	312	2	35	
12	0	0	0	0	28	33	543	312	2	35	
13	0	0	0	0	28	33	543	312	2	35	
14	0	0	0	0	28	33	543	312	2	35	
15	0	0	0	0	28	33	543	312	2	35	
0	0	0	0	0	28	33	543	312	2	35	
1	0	0	0	0	28	33	543	312	2	35	
2	0	0	0	0	28	33	543	312	2	35	
3	0	0	0	0	25	33	543	312	2	35	
4	0	0	0	0	28	33	543	312	2	35	
5	0	0	0	0	28	31	547	312	2	35	
6	0	0	0	0	30	35	547	312	2	35	
7	0	0	0	0	28	33	547	312	2	35	
8	0	0	0	0	28	33	547	312	2	35	
9	0	0	0	0	28	33	547	312	2	35	
10	0	0	0	0	30	35	543	312	2	35	
11	0	0	0	0	28	33	543	312	2	35	
12	0	0	0	0	28	33	543	312	2	35	
13	0	0	0	0	28	33	543	312	2	35	
14	0	0	0	0	28	35	543	312	2	35	
15	0	0	0	0	30	35	543	312	2	35	
0	0	0	0	0	28	31	542	312	2	35	
1	0	0	0	0	28	33	542	312	2	35	
2	0	0	0	0	28	33	542	312	2	35	
3	0	0	0	0	28	33	540	312	2	35	
4	0	0	0	0	28	33	542	312	2	35	
5	0	0	0	0	28	33	542	312	2	35	
6	0	0	0	0	28	33	542	312	2	35	
7	0	0	0	0	30	35	542	312	2	35	
8	0	0	0	0	30	35	542	312	2	35	
9	0	0	0	0	28	31	542	312	2	35	
10	0	0	0	0	28	33	542	312	2	35	
11	0	0	0	0	28	31	542	312	2	35	
12	0	0	0	0	28	35	540	312	2	35	
13	0	0	0	0	28	33	540	312	2	35	
14	0	0	0	0	30	35	540	312	2	35	
15	0	0	0	0	28	33	537	312	2	35	
0	0	0	0	0	28	31	536	312	2	35	
1	0	0	0	0	28	33	536	312	2	35	
2	0	0	0	0	30	35	536	312	2	35	
3	0	0	0	0	28	35	536	312	2	35	
4	0	0	0	0	28	33	536	312	2	35	
5	0	0	0	0	30	33	536	310	2	35	
6	0	0	0	0	28	31	536	310	2	35	
7	0	0	0	0	28	33	536	310	2	35	
8	0	0	0	0	28	33	536	310	2	35	
9	0	0	0	0	28	33	536	307	2	35	
10	0	0	0	0	28	33	536	307	2	35	
11	0	0	0	0	28	33	536	307	2	35	
12	0	0	0	0	28	31	536	307	2	35	
13	0	0	0	0	28	33	536	307	2	35	
14	0	0	0	0	28	33	536	307	2	35	
15	0	0	0	0	28	31	536	307	2	35	
0	0	0	0	0	30	35	536	307	2	35	
1	0	0	0	0	28	31	536	307	2	35	
2	0	0	0	0	28	33	536	307	2	35	
3	0	0	0	0	28	33	536	307	2	35	
4	0	0	0	0	28	33	536	307	2	35	
5	0	0	0	0	28	33	536	308	2	35	
6	0	0	0	0	28	33	534	308	2	35	
7	0	0	0	0	28	33	531	310	2	35	
8	0	0	0	0	28	33	531	310	2	35	
9	0	0	0	0	28	31	531	310	2	35	
10	0	0	0	0	28	35	531	310	2	35	
11	0	0	0	0	30	35	531	312	2	35	
12	0	0	0	0	30	35	531	312	2	35	
13	0	0	0	0	28	33	531	312	2	35	
14	0	0	0	0	30	35	531	312	2	35	
15	0	0	0	0	28	33	531	312	2	35	
0	0	0	0	0	28	31	531	312	2	35	
1	0	0	0	0	30	35	531	312	2	35	
2	0	0	0	0	30	35	531	312	2	35	
3	0	0	0	0	28	31	531	312	2	35	
4	0	0	0	0	28	33	531	312	2	35	
5	0	0	0	0	28	33	531	312	2	35	
6	0	0	0	0	30	35	529	312	2	35	
7	0	0	0	0	28	33	527	312	2	35	
8	0	0	0	0	28	33	527	312	2	35	
9	0	0	0	0	28	33	527	312	2	35	
10	0	0	0	0	28	33	527	312	2	35	
11	0	0	0	0	28	33	527	312	2	35	
12	0	0	0	0	28	33	527	312	2	35	
13	0	0	0	0	28	33	527	312	2	35	
14	0	0	0	0	28	35	527	312	2	35	
15	0	0	0	0	28	31	527	312	2	35	
0	0	0	0	0	28	33	527	312	2	35	
1	0	0	0	0	28	31	527	312	2	35	
2	0	0	0	0	28	33	527	312	2	35	
3	0	0	0	0	30	35	527	312	2	35	
4	0	0	0	0	28	33	527	312	2	35	
5	0	0	0	0	30	35	527	312	2	35	
6	0	0	0	0	28	33	527	312	2	35	
7	0	0	0	0	30	35	527	312	2	35	
8	0	0	0	0	25	33	527	312	2	35	
9	0	0	0	0	28	31	527	312	2	35	
10	0	0	0	0	28	33	526	312	2	35	
11	0	0	0	0	30	35	526	312	2	35	
12	0	0	0	0	28	33	524	312	2	35	
13	0	0	0	0	28	33	524	312	2	35	
14	0	0	0	0	28	33	524	312	2	35	
15	0	0	0	0	28	33	524	312	2	35	
0	0	0	0	0	28	33	524	312	2	35	
1	0	0	0	0	28	33	523	312	2	35	
2	0	0	0	0	28	33	524	312	2	35	
3	0	0	0	0	28	35	524	312	2	35	
4	0	0	0	0	28	35	524	312	2	35	
5	0	0	0	0	28	31	524	312	2	35	
6	0	0	0	0	28	35	524	312	2	35	
7	0	0	0	0	30	33	526	312	2	35	
8	0	0	0	0	28	33	526	312	2	35	
9	0	0	0	0	28	33	526	312	2	35	
10	0	0	0	0	28	31	526	312	2	35	
11	0	0	0	0	28	33	526	312	2	35	
12	0	0	0	0	28	31	526	310	2	35	
13	0	0	0	0	28	33	526	310	2	35	
14	0	0	0	0	28	33	526	310	2	35	
15	0	0	0	0	28	31	524	310	2	35	
0	0	0	0	0	28	35	524	310	2	35	
1	0	0	0	0	28	31	524	310	2	35	
2	0	0	0	0	31	35	521	308	2	35	
3	0	0	0	0	30	33	521	307	2	35	
4	0	0	0	0	28	33	521	307	2	35	
5	0	0	0	0	28	33	521	307	2	35	
6	0	0	0	0	28	33	521	307	2	35	
7	0	0	0	0	28	33	521	307	2	35	
8	0	0	0	0	28	33	524	307	2	35	
9	0	0	0	0	28	31	524	307	2	35	
10	0	0	0	0	28	33	524	307	2	35	
11	0	0	0	0	28	33	524	307	2	35	
12	0	0	0	0	28	33	524	307	2	35	
13	0	0	0	0	28	31	526	307	2	35	
14	0	0	0	0	28	31	526	307	2	35	
15	0	0	0	0	28	31	526	307	2	35	
0	0	0	0	0	28	31	524	307	2	35	
1	0	0	0	0	28	33	524	307	2	35	
2	0	0	0	0	28	33	524	307	2	35	
3	0	0	0	0	28	31	524	307	2	35	
4	0	0	0	0	28	33	524	307	2	35	
5	0	0	0	0	28	33	521	307	2	35	
6	0	0	0	0	28	35	521	307	2	35	
7	0	0	0	0	30	34	519	307	2	35	
8	0	0	0	0	28	31	519	307	2	35	
9	0	0	0	0	28	33	519	307	2	35	
10	0	0	0	0	28	31	521	307	2	35	
11	0	0	0	0	28	33	521	307	2	35	
12	0	0	0	0	28	31	524	307	2	35	
13	0	0	0	0	28	33	524	307	2	35	
14	0	0	0	0	28	35	524	307	2	35	
15	0	0	0	0	28	31	524	307	2	35	
0	0	0	0	0	28	33	526	307	2	35	
1	0	0	0	0	28	33	526	307	2	35	
2	0	0	0	0	30	35	526	307	2	35	
3	0	0	0	0	28	33	526	307	2	35	
4	0	0	0	0	28	33	526	307	2	35	
5	0	0	0	0	28	33	524	307	2	35	
6	0	0	0	0	30	33	524	307	2	35	
7	0	0	0	0	28	33	524	307	2	35	
8	0	0	0	0	28	33	524	307	2	35	
9	0	0	0	0	30	35	521	307	2	35	
10	0	0	0	0	28	31	521	307	2	35	
11	0	0	0	0	28	33	521	307	2	35	
12	0	0	0	0	28	33	521	307	2	35	
13	0	0	0	0	28	33	521	307	2	35	
14	0	0	0	0	28	33	521	307	2	35	
15	0	0	0	0	28	33	524	307	2	35	
0	0	0	0	0	30	35	524	307	2	35	
1	0	0	0	0	28	33	524	307	2	35	
2	0	0	0	0	28	33	524	307	2	35	
3	0	0	0	0	28	31	526	307	2	35	
4	0	0	0	0	28	33	526	307	2	35	
5	0	0	0	0	28	31	527	307	2	35	
6	0	0	0	0	28	33	527	307	2	35	
7	0	0	0	0	28	33	527	307	2	35	
8	0	0	0	0	28	33	527	310	2	35	
9	0	0	0	0	28	33	527	310	2	35	
10	0	0	0	0	28	33	526	310	2	35	
11	0	0	0	0	28	33	526	310	2	35	
12	0	0	0	0	28	33	524	310	2	35	
13	0	0	0	0	28	33	524	307	2	35	
14	0	0	0	0	28	33	524	305	2	35	
15	0	0	0	0	28	31	524	304	2	35	
0	0	0	0	0	28	31	524	304	2	35	
1	0	0	0	0	28	35	524	304	2	35	
2	0	0	0	0	28	33	524	304	2	35	
3	0	0	0	0	28	33	524	304	2	35	
4	0	0	0	0	28	33	526	304	2	35	
5	0	0	0	0	28	33	526	304	2	35	
6	0	0	0	0	30	35	527	304	2	35	
7	0	0	0	0	28	33	527	304	2	35	
8	0	0	0	0	28	33	527	305	2	35	
9	0	0	0	0	28	31	527	307	2	35	
10	0	0	0	0	28	31	527	307	2	35	
11	0	0	0	0	28	35	527	307	2	35	
12	0	0	0	0	28	33	527	307	2	35	
13	0	0	0	0	28	33	527	310	2	35	
14	0	0	0	0	30	35	527	312	2	35	
15	0	0	0	0	28	33	527	312	2	35	
0	0	0	0	0	28	33	527	312	2	35	
1	0	0	0	0	28	33	526	312	2	35	
2	0	0	0	0	28	35	526	313	2	35	
3	0	0	0	0	25	35	526	316	2	35	
4	0	0	0	0	28	35	526	313	2	35	
5	0	0	0	0	28	35	526	316	2	35	
6	0	0	0	0	30	35	524	316	2	35	
7	0	0	0	0	31	35	526	316	2	35	
8	0	0	0	0	30	33	526	316	2	35	
9	0	0	0	0	28	33	527	316	2	35	
10	0	0	0	0	28	34	527	316	2	35	
11	0	0	0	0	30	33	527	313	2	35	
12	0	0	0	0	30	35	527	313	2	35	
13	0	0	0	0	28	33	527	312	2	35	
14	0	0	0	0	28	35	527	312	2	35	
15	0	0	0	0	28	33	527	312	2	35	
0	0	0	0	0	30	35	527	312	2	35	
1	0	0	0	0	30	35	527	312	2	35	
2	0	0	0	0	31	35	527	312	2	35	
3	0	0	0	0	30	35	527	312	2	35	
4	0	0	0	0	28	33	527	310	2	35	
5	0	0	0	0	28	33	527	310	2	35	
6	0	0	0	0	28	33	526	310	2	35	
7	0	0	0	0	30	35	526	307	2	35	
8	0	0	0	0	30	35	524	310	2	35	
9	0	0	0	0	28	33	524	310	2	35	
10	0	0	0	0	30	31	524	310	2	35	
11	0	0	0	0	28	35	526	310	2	35	
12	0	0	0	0	30	35	526	310	2	35	
13	0	0	0	0	28	33	526	312	2	35	
14	0	0	0	0	28	33	527	312	2	35	
15	0	0	0	0	28	33	527	312	2	35	
0	0	0	0	0	28	33	527	312	2	35	
1	0	0	0	0	30	35	527	313	2	35	
2	0	0	0	0	28	35	527	313	2	35	
3	0	0	0	0	28	33	527	313	2	35	
4	0	0	0	0	30	35	527	312	2	35	
5	0	0	0	0	28	35	527	313	2	35	
6	0	0	0	0	30	35	526	313	2	35	
7	0	0	0	0	28	35	526	313	2	35	
8	0	0	0	0	28	35	524	313	2	35	
9	0	0	0	0	28	35	524	313	2	35	
10	0	0	0	0	28	35	524	316	2	35	
11	0	0	0	0	31	35	524	316	2	35	
12	0	0	0	0	30	35	524	316	2	35	
13	0	0	0	0	30	35	524	316	2	35	
14	0	0	0	0	28	35	524	316	2	35	
15	0	0	0	0	30	33	524	316	2	35	
0	0	0	0	0	28	33	524	316	2	35	
1	0	0	0	0	30	35	524	319	2	35	
2	0	0	0	0	31	36	526	335	2	35	
3	0	0	0	0	31	35	526	318	2	35	
4	0	0	0	0	30	35	526	319	2	35	
5	0	0	0	0	30	35	527	318	2	35	
6	0	0	0	0	31	35	527	319	2	35	
7	0	0	0	0	30	35	527	323	2	35	
8	0	0	0	0	30	35	527	312	2	35	
9	0	0	0	0	30	35	527	313	2	35	
10	0	0	0	0	30	31	526	305	2	35	
11	0	0	0	0	28	35	526	313	2	35	
12	0	0	0	0	30	35	524	316	2	35	
13	0	0	0	0	30	35	524	312	2	35	
14	0	0	0	0	28	35	524	312	2	35	
15	0	0	0	0	28	33	524	304	2	35	
0	0	0	0	0	30	35	524	307	2	35	
1	0	0	0	0	31	35	523	304	2	35	
2	0	0	0	0	30	35	524	310	2	35	
3	0	0	0	0	28	35	524	304	2	35	
4	0	0	0	0	28	35	524	304	2	35	
5	0	0	0	0	28	35	524	304	2	35	
6	0	0	0	0	28	31	524	303	2	35	
7	0	0	0	0	31	36	526	305	2	35	
8	0	0	0	0	30	35	526	302	2	35	
9	0	0	0	0	30	35	526	304	2	35	
10	0	0	0	0	28	35	527	303	2	35	
11	0	0	0	0	30	35	527	304	2	35	
12	0	0	0	0	30	35	527	304	2	35	
13	0	0	0	0	30	35	526	304	2	35	
14	0	0	0	0	30	35	526	304	2	35	
15	0	0	0	0	28	33	526	304	2	35	
0	0	0	0	0	30	35	524	305	2	35	
1	0	0	0	0	28	35	524	304	2	35	
2	0	0	0	0	31	35	524	307	2	35	
3	0	0	0	0	30	35	524	305	2	35	
4	0	0	0	0	30	35	524	307	2	35	
5	0	0	0	0	30	35	524	307	2	35	
6	0	0	0	0	30	35	524	307	2	35	
7	0	0	0	0	30	35	524	310	2	35	
8	0	0	0	0	30	35	524	307	2	35	
9	0	0	0	0	30	35	526	312	2	35	
10	0	0	0	0	30	35	526	310	2	35	
11	0	0	0	0	31	38	527	312	2	35	
12	0	0	0	0	30	35	527	312	2	35	
13	0	0	0	0	30	35	527	312	2	35	
14	0	0	0	0	30	35	527	312	2	35	
15	0	0	0	0	30	35	527	310	2	35	
0	0	0	0	0	30	35	527	312	2	35	
1	0	0	0	0	30	35	526	312	2	35	
2	0	0	0	0	30	35	526	312	2	35	
3	0	0	0	0	28	33	524	312	2	35	
4	0	0	0	0	28	35	524	312	2	35	
5	0	0	0	0	31	35	524	312	2	35	
6	0	0	0	0	28	33	524	312	2	35	
7	0	0	0	0	30	35	524	312	2	35	
8	0	0	0	0	31	35	524	312	2	35	
9	0	0	0	0	30	35	524	312	2	35	
10	0	0	0	0	30	35	524	312	2	35	
11	0	0	0	0	30	35	524	312	2	35	
12	0	0	0	0	31	35	524	312	2	35	
13	0	0	0	0	30	35	526	312	2	35	
14	0	0	0	0	28	35	527	312	2	35	
15	0	0	0	0	30	33	527	312	2	35	
0	0	0	0	0	28	35	527	312	2	35	
1	0	0	0	0	28	35	527	312	2	35	
2	0	0	0	0	31	35	527	312	2	35	
3	0	0	0	0	31	35	527	312	2	35	
4	0	0	0	0	30	35	527	312	2	35	
5	0	0	0	0	30	35	527	312	2	35	
6	0	0	0	0	30	35	527	312	2	35	
7	0	0	0	0	28	35	527	312	2	35	
8	0	0	0	0	30	35	526	312	2	35	
9	0	0	0	0	28	33	526	312	2	35	
10	0	0	0	0	30	35	524	312	2	35	
11	0	0	0	0	31	38	524	312	2	35	
12	0	0	0	0	30	35	524	312	2	35	
13	0	0	0	0	31	35	521	312	2	35	
14	0	0	0	0	30	35	521	312	2	35	
15	0	0	0	0	31	35	521	312	2	35	
0	0	0	0	0	30	35	521	312	2	35	
1	0	0	0	0	31	35	521	312	2	35	
2	0	0	0	0	30	35	521	312	2	35	
3	0	0	0	0	28	35	521	310	2	35	
4	0	0	0	0	31	36	521	310	2	35	
5	0	0	0	0	30	35	521	312	2	35	
6	0	0	0	0	30	35	521	310	2	35	
7	0	0	0	0	31	35	521	310	2	35	
8	0	0	0	0	30	35	521	310	2	35	
9	0	0	0	0	30	35	519	310	2	35	
10	0	0	0	0	30	35	519	308	2	35	
11	0	0	0	0	30	35	519	307	2	35	
12	0	0	0	0	30	35	519	307	2	35	
13	0	0	0	0	30	35	519	307	2	35	
14	0	0	0	0	28	35	518	307	2	35	
15	0	0	0	0	30	33	515	307	2	35	
0	0	0	0	0	30	35	515	307	2	35	
1	0	0	0	0	30	35	515	307	2	35	
2	0	0	0	0	30	35	515	307	2	35	
3	0	0	0	0	30	35	513	307	2	35	
4	0	0	0	0	30	35	513	307	2	35	
5	0	0	0	0	30	35	513	307	2	35	
6	0	0	0	0	30	35	513	307	2	35	
7	0	0	0	0	30	35	513	307	2	35	
8	0	0	0	0	30	35	513	307	2	35	
9	0	0	0	0	28	33	515	307	2	35	
10	0	0	0	0	30	35	515	307	2	35	
11	0	0	0	0	28	33	515	307	2	35	
12	0	0	0	0	30	35	515	307	2	35	
13	0	0	0	0	30	35	515	307	2	35	
14	0	0	0	0	30	35	515	307	2	35	
15	0	0	0	0	28	35	515	307	2	35	
0	0	0	0	0	31	35	513	307	2	35	
1	0	0	0	0	30	35	513	307	2	35	
2	0	0	0	0	31	35	513	307	2	35	
3	0	0	0	0	28	35	512	308	2	35	
4	0	0	0	0	30	35	512	308	2	35	
5	0	0	0	0	30	33	512	310	2	35	
6	0	0	0	0	30	35	511	310	2	35	
7	0	0	0	0	31	35	511	310	2	35	
8	0	0	0	0	30	35	511	312	2	35	
9	0	0	0	0	30	35	510	312	2	35	
10	0	0	0	0	30	35	510	312	2	35	
11	0	0	0	0	30	35	508	312	2	35	
12	0	0	0	0	30	35	508	312	2	35	
13	0	0	0	0	31	35	505	312	2	35	
14	0	0	0	0	30	35	505	312	2	35	
15	0	0	0	0	30	33	504	312	2	35	
0	0	0	0	0	30	36	504	312	2	35	
1	0	0	0	0	30	35	504	312	2	35	
2	0	0	0	0	31	35	502	312	2	35	
3	0	0	0	0	30	35	499	312	2	35	
4	0	0	0	0	30	35	499	312	2	35	
5	0	0	0	0	30	35	497	312	2	35	
6	0	0	0	0	31	36	496	312	2	35	
7	0	0	0	0	31	35	496	312	2	35	
8	0	0	0	0	30	35	496	312	2	35	
9	0	0	0	0	28	33	496	312	2	35	
10	0	0	0	0	31	35	496	312	2	35	
11	0	0	0	0	28	35	496	312	2	35	
12	0	0	0	0	30	35	496	312	2	35	
13	0	0	0	0	30	35	496	312	2	35	
14	0	0	0	0	30	35	496	312	2	35	
15	0	0	0	0	30	35	496	312	2	35	
0	0	0	0	0	30	35	496	312	2	35	
1	0	0	0	0	30	35	496	312	2	35	
2	0	0	0	0	30	35	496	312	2	35	
3	0	0	0	0	28	35	496	312	2	35	
4	0	0	0	0	30	35	496	312	2	35	
5	0	0	0	0	31	35	496	312	2	35	
6	0	0	0	0	28	33	496	312	2	35	
7	0	0	0	0	30	35	496	312	2	35	
8	0	0	0	0	30	35	496	312	2	35	
9	0	0	0	0	30	35	496	312	2	35	
10	0	0	0	0	30	35	496	312	2	35	
11	0	0	0	0	30	35	496	312	2	35	
12	0	0	0	0	30	35	496	312	2	35	
13	0	0	0	0	30	35	497	312	2	35	
14	0	0	0	0	28	35	499	312	2	35	
15	0	0	0	0	30	35	502	312	2	35	
0	0	0	0	0	30	35	504	312	2	35	
1	0	0	0	0	28	35	504	312	2	35	
2	0	0	0	0	30	35	508	312	2	35	
3	0	0	0	0	30	35	510	312	2	35	
4	0	0	0	0	30	35	511	312	2	35	
5	0	0	0	0	30	35	512	312	2	35	
6	0	0	0	0	31	35	515	312	2	35	
7	0	0	0	0	30	35	515	312	2	35	
8	0	0	0	0	28	35	519	312	2	35	
9	0	0	0	0	30	35	519	312	2	35	
10	0	0	0	0	31	35	519	312	2	35	
11	0	0	0	0	30	35	519	312	2	35	
12	0	0	0	0	30	35	521	312	2	35	
13	0	0	0	0	30	35	524	312	2	35	
14	0	0	0	0	31	36	524	312	2	35	
15	0	0	0	0	31	35	524	312	2	35	
0	0	0	0	0	30	35	526	312	2	35	
1	0	0	0	0	30	35	526	312	2	35	
2	0	0	0	0	31	35	527	312	2	35	
3	0	0	0	0	30	35	527	312	2	35	
4	0	0	0	0	30	35	527	312	2	35	
5	0	0	0	0	30	35	527	312	2	35	
6	0	0	0	0	28	35	527	312	2	35	
7	0	0	0	0	30	35	527	312	2	35	
8	0	0	0	0	30	35	527	312	2	35	
9	0	0	0	0	30	35	527	312	2	35	
10	0	0	0	0	30	35	527	312	2	35	
11	0	0	0	0	30	35	527	312	2	35	
12	0	0	0	0	30	35	527	312	2	35	
13	0	0	0	0	30	35	527	312	2	35	
14	0	0	0	0	28	35	527	312	2	35	
15	0	0	0	0	28	33	527	312	2	35	
0	0	0	0	0	30	35	527	312	2	35	
1	0	0	0	0	28	33	527	312	2	35	
2	0	0	0	0	30	35	527	312	2	35	
3	0	0	0	0	30	35	527	312	2	35	
4	0	0	0	0	30	35	527	312	2	35	
5	0	0	0	0	28	35	527	312	2	35	
6	0	0	0	0	30	35	527	312	2	35	
7	0	0	0	0	28	35	527	312	2	35	
8	0	0	0	0	30	35	527	312	2	35	
9	0	0	0	0	30	35	527	312	2	35	
10	0	0	0	0	30	35	529	312	2	35	
11	0	0	0	0	31	38	531	312	2	35	
12	0	0	0	0	30	35	531	312	2	35	
13	0	0	0	0	30	35	531	312	2	35	
14	0	0	0	0	30	35	531	312	2	35	
15	0	0	0	0	30	35	531	312	2	35	
0	0	0	0	0	30	35	531	312	2	35	
1	0	0	0	0	30	35	529	312	2	35	
2	0	0	0	0	31	35	527	310	2	35	
3	0	0	0	0	28	33	527	310	2	35	
4	0	0	0	0	30	35	527	310	2	35	
5	0	0	0	0	28	35	527	310	2	35	
6	0	0	0	0	30	35	527	308	2	35	
7	0	0	0	0	30	35	527	307	2	35	
8	0	0	0	0	30	35	527	307	2	35	
9	0	0	0	0	30	35	527	307	2	35	
10	0	0	0	0	30	35	527	307	2	35	
11	0	0	0	0	30	35	527	307	2	35	
12	0	0	0	0	30	35	527	307	2	35	
13	0	0	0	0	30	35	529	307	2	35	
14	0	0	0	0	28	35	531	307	2	35	
15	0	0	0	0	30	33	531	307	2	35	
0	0	0	0	0	30	35	531	307	2	35	
1	0	0	0	0	30	38	531	307	2	35	
2	0	0	0	0	31	35	531	307	2	35	
3	0	0	0	0	30	35	531	307	2	35	
4	0	0	0	0	30	35	531	307	2	35	
5	0	0	0	0	30	35	529	307	2	35	
6	0	0	0	0	30	35	527	307	2	35	
7	0	0	0	0	31	35	527	310	2	35	
8	0	0	0	0	30	35	527	310	2	35	
9	0	0	0	0	30	35	527	310	2	35	
10	0	0	0	0	30	33	527	310	2	35	
11	0	0	0	0	28	35	527	312	2	35	
12	0	0	0	0	30	35	527	312	2	35	
13	0	0	0	0	30	35	527	312	2	35	
14	0	0	0	0	30	35	531	312	2	35	
15	0	0	0	0	30	35	534	312	2	35	
0	0	0	0	0	30	35	536	312	2	35	
1	0	0	0	0	30	35	540	312	2	35	
2	0	0	0	0	31	35	542	312	2	35	
3	0	0	0	0	30	35	543	312	2	35	
4	0	0	0	0	28	35	543	312	2	35	
5	0	0	0	0	30	35	543	312	2	35	
6	0	0	0	0	28	33	543	312	2	35	
7	0	0	0	0	28	35	543	312	2	35	
8	0	0	0	0	30	35	543	312	2	35	
9	0	0	0	0	30	35	540	312	2	35	
10	0	0	0	0	30	35	536	312	2	35	
11	0	0	0	0	30	35	527	312	2	35	
12	0	0	0	0	30	35	519	312	2	35	
13	0	0	0	0	30	35	508	312	2	35	
14	0	0	0	0	28	35	496	312	2	35	
15	0	0	0	0	30	31	483	312	2	35	
0	0	0	0	0	30	33	467	312	2	35	
1	0	0	0	0	28	33	451	312	2	35	
2	0	0	0	0	30	35	433	312	2	35	
3	0	0	0	0	30	33	414	312	2	35	
4	0	0	0	0	30	35	391	312	2	35	
5	0	0	0	0	31	35	371	312	2	35	
6	0	0	0	0	30	35	348	310	2	35	
7	0	0	0	0	30	33	326	310	2	35	
8	0	0	0	0	28	31	304	310	2	35	
9	0	0	0	0	28	31	280	310	2	35	
10	0	0	0	0	28	35	259	308	2	35	
11	0	0	0	0	28	31	240	307	2	35	
12	0	0	0	0	28	31	224	307	2	35	
13	0	0	0	0	28	31	207	307	2	35	
14	0	0	0	0	28	31	192	307	2	35	
15	0	0	0	0	28	31	179	307	2	35	
0	0	0	0	0	28	31	172	307	2	35	
1	0	0	0	0	28	31	163	307	2	35	
2	0	0	0	0	30	33	159	307	2	35	
3	0	0	0	0	28	31	163	307	2	35	
4	0	0	0	0	28	33	167	307	2	35	
5	0	0	0	0	30	35	176	307	2	35	
6	0	0	0	0	28	31	188	307	2	35	
7	0	0	0	0	30	33	204	307	2	35	
8	0	0	0	0	28	31	224	307	2	35	
9	0	0	0	0	28	33	248	307	2	35	
10	0	0	0	0	28	33	271	307	2	35	
11	0	0	0	0	28	33	300	307	2	35	
12	0	0	0	0	28	33	327	307	2	35	
13	0	0	0	0	28	33	358	307	2	35	
14	0	0	0	0	28	35	385	307	2	35	
15	0	0	0	0	28	31	414	307	2	35	
0	0	0	0	0	30	33	440	308	2	35	
1	0	0	0	0	30	33	463	310	2	35	
2	0	0	0	0	30	35	483	310	2	35	
3	0	0	0	0	30	35	504	310	2	35	
4	0	0	0	0	30	35	519	312	2	35	
5	0	0	0	0	30	35	527	312	2	35	
6	0	0	0	0	31	35	537	312	2	35	
7	0	0	0	0	30	35	543	312	2	35	
8	0	0	0	0	28	35	543	312	2	35	
9	0	0	0	0	28	33	543	312	2	35	
10	0	0	0	0	28	35	542	312	2	35	
11	0	0	0	0	28	35	536	312	2	35	
12	0	0	0	0	30	35	531	312	2	35	
13	0	0	0	0	30	35	526	312	2	35	
14	0	0	0	0	28	35	519	312	2	35	
15	0	0	0	0	30	35	512	312	2	35	
0	0	0	0	0	30	33	508	312	2	35	
1	0	0	0	0	30	35	504	312	2	35	
2	0	0	0	0	31	35	497	312	2	35	
3	0	0	0	0	30	33	496	312	2	35	
4	0	0	0	0	30	35	492	310	2	35	
5	0	0	0	0	28	35	489	310	2	35	
6	0	0	0	0	28	35	487	310	2	35	
7	0	0	0	0	30	35	487	310	2	35	
8	0	0	0	0	30	33	487	307	2	35	
9	0	0	0	0	30	35	487	308	2	35	
10	0	0	0	0	28	34	489	307	2	35	
11	0	0	0	0	30	35	492	307	2	35	
12	0	0	0	0	28	33	494	307	2	35	
13	0	0	0	0	30	35	496	307	2	35	
14	0	0	0	0	30	36	496	307	2	35	
15	0	0	0	0	31	33	499	307	2	35	
0	0	0	0	0	28	31	502	308	2	35	
1	0	0	0	0	30	35	504	310	2	35	
2	0	0	0	0	30	35	504	310	2	35	
3	0	0	0	0	30	35	508	310	2	35	
4	0	0	0	0	30	35	508	310	2	35	
5	0	0	0	0	30	35	510	312	2	35	
6	0	0	0	0	30	35	510	312	2	35	
7	0	0	0	0	31	35	511	312	2	35	
8	0	0	0	0	28	35	511	312	2	35	
9	0	0	0	0	28	33	511	312	2	35	
10	0	0	0	0	28	33	511	312	2	35	
11	0	0	0	0	30	35	511	312	2	35	
12	0	0	0	0	31	35	511	312	2	35	
13	0	0	0	0	28	34	511	312	2	35	
14	0	0	0	0	31	35	511	312	2	35	
15	0	0	0	0	30	35	511	312	2	35	
0	0	0	0	0	30	34	511	312	2	35	
1	0	0	0	0	30	35	511	312	2	35	
2	0	0	0	0	30	35	511	312	2	35	
3	0	0	0	0	28	33	511	312	2	35	
4	0	0	0	0	30	35	511	312	2	35	
5	0	0	0	0	31	35	511	312	2	35	
6	0	0	0	0	30	35	512	312	2	35	
7	0	0	0	0	30	35	512	312	2	35	
8	0	0	0	0	30	35	512	312	2	35	
9	0	0	0	0	28	35	512	312	2	35	
10	0	0	0	0	30	35	512	312	2	35	
11	0	0	0	0	30	34	512	312	2	35	
12	0	0	0	0	28	33	512	312	2	35	
13	0	0	0	0	30	35	512	312	2	35	
14	0	0	0	0	28	35	512	312	2	35	
15	0	0	0	0	28	33	512	312	2	35	
0	0	0	0	0	30	35	512	312	2	35	
1	0	0	0	0	30	35	511	312	2	35	
2	0	0	0	0	31	35	511	312	2	35	
3	0	0	0	0	30	35	511	312	2	35	
4	0	0	0	0	28	35	511	312	2	35	
5	0	0	0	0	30	35	511	312	2	35	
6	0	0	0	0	28	35	511	312	2	35	
7	0	0	0	0	30	35	511	312	2	35	
8	0	0	0	0	28	35	511	312	2	35	
9	0	0	0	0	28	33	511	312	2	35	
10	0	0	0	0	28	33	511	312	2	35	
11	0	0	0	0	30	33	511	312	2	35	
12	0	0	0	0	30	35	511	312	2	35	
13	0	0	0	0	30	35	511	312	2	35	
14	0	0	0	0	30	33	511	312	2	35	
15	0	0	0	0	28	33	511	312	2	35	
0	0	0	0	0	30	35	510	312	2	35	
1	0	0	0	0	30	35	510	312	2	35	
2	0	0	0	0	30	35	508	312	2	35	
3	0	0	0	0	28	35	508	312	2	35	
4	0	0	0	0	28	35	508	312	2	35	
5	0	0	0	0	28	35	508	312	2	35	
6	0	0	0	0	30	35	505	312	2	35	
7	0	0	0	0	30	35	505	312	2	35	
8	0	0	0	0	30	34	505	312	2	35	
9	0	0	0	0	30	35	504	312	2	35	
10	0	0	0	0	30	35	505	312	2	35	
11	0	0	0	0	30	35	505	312	2	35	
12	0	0	0	0	30	33	505	312	2	35	
13	0	0	0	0	28	35	505	312	2	35	
14	0	0	0	0	28	35	505	312	2	35	
15	0	0	0	0	30	31	508	312	2	35	
0	0	0	0	0	28	33	508	312	2	35	
1	0	0	0	0	30	35	505	312	2	35	
2	0	0	0	0	30	35	505	312	2	35	
3	0	0	0	0	31	35	505	312	2	35	
4	0	0	0	0	31	35	504	312	2	35	
5	0	0	0	0	30	33	504	312	2	35	
6	0	0	0	0	28	34	504	312	2	35	
7	0	0	0	0	30	33	504	310	2	35	
8	0	0	0	0	28	35	504	310	2	35	
9	0	0	0	0	28	31	504	310	2	35	
10	0	0	0	0	28	35	504	310	2	35	
11	0	0	0	0	28	31	504	310	2	35	
12	0	0	0	0	30	33	504	310	2	35	
13	0	0	0	0	28	33	502	307	2	35	
14	0	0	0	0	28	33	502	307	2	35	
15	0	0	0	0	30	33	502	307	2	35	
0	0	0	0	0	28	33	502	307	2	35	
1	0	0	0	0	30	35	502	307	2	35	
2	0	0	0	0	30	35	502	310	2	35	
3	0	0	0	0	28	35	499	308	2	35	
4	0	0	0	0	30	35	499	310	2	35	
5	0	0	0	0	30	35	499	310	2	35	
6	0	0	0	0	30	35	499	310	2	35	
7	0	0	0	0	30	35	497	310	2	35	
8	0	0	0	0	30	33	496	312	2	35	
9	0	0	0	0	28	33	496	312	2	35	
10	0	0	0	0	30	35	496	312	2	35	
11	0	0	0	0	30	33	494	312	2	35	
12	0	0	0	0	30	33	492	312	2	35	
13	0	0	0	0	30	35	492	312	2	35	
14	0	0	0	0	28	35	489	312	2	35	
15	0	0	0	0	31	33	487	310	2	35	
0	0	0	0	0	28	35	487	310	2	35	
1	0	0	0	0	30	35	487	310	2	35	
2	0	0	0	0	30	35	487	310	2	35	
3	0	0	0	0	30	35	487	310	2	35	
4	0	0	0	0	30	33	487	308	2	35	
5	0	0	0	0	30	33	487	307	2	35	
6	0	0	0	0	30	35	487	307	2	35	
7	0	0	0	0	30	35	486	307	2	35	
8	0	0	0	0	28	35	483	307	2	35	
9	0	0	0	0	28	33	483	307	2	35	
10	0	0	0	0	28	31	483	307	2	35	
11	0	0	0	0	28	31	481	307	2	35	
12	0	0	0	0	28	33	480	307	2	35	
13	0	0	0	0	28	33	480	307	2	35	
14	0	0	0	0	28	33	478	307	2	35	
15	0	0	0	0	30	35	476	307	2	35	
0	0	0	0	0	30	35	473	307	2	35	
1	0	0	0	0	28	33	472	307	2	35	
2	0	0	0	0	30	35	472	308	2	35	
3	0	0	0	0	30	38	472	310	2	35	
4	0	0	0	0	28	35	470	310	2	35	
5	0	0	0	0	28	35	467	310	2	35	
6	0	0	0	0	28	35	467	312	2	35	
7	0	0	0	0	30	35	467	312	2	35	
8	0	0	0	0	30	33	467	312	2	35	
9	0	0	0	0	30	35	467	312	2	35	
10	0	0	0	0	30	35	467	312	2	35	
11	0	0	0	0	30	33	465	312	2	35	
12	0	0	0	0	30	33	463	312	2	35	
13	0	0	0	0	30	35	463	312	2	35	
14	0	0	0	0	28	35	463	312	2	35	
15	0	0	0	0	28	33	463	312	2	35	
0	0	0	0	0	30	35	460	312	2	35	
1	0	0	0	0	28	35	460	312	2	35	
2	0	0	0	0	30	35	455	312	2	35	
3	0	0	0	0	30	33	455	312	2	35	
4	0	0	0	0	30	35	454	312	2	35	
5	0	0	0	0	30	35	451	312	2	35	
6	0	0	0	0	30	33	449	312	2	35	
7	0	0	0	0	30	33	448	312	2	35	
8	0	0	0	0	30	35	448	312	2	35	
9	0	0	0	0	28	33	448	312	2	35	
10	0	0	0	0	31	35	448	312	2	35	
11	0	0	0	0	30	35	448	312	2	35	
12	0	0	0	0	30	33	448	312	2	35	
13	0	0	0	0	30	35	448	312	2	35	
14	0	0	0	0	30	35	448	312	2	35	
15	0	0	0	0	28	31	448	310	2	35	
0	0	0	0	0	28	33	448	310	2	35	
1	0	0	0	0	28	33	448	310	2	35	
2	0	0	0	0	30	35	448	307	2	35	
3	0	0	0	0	31	35	444	307	2	35	
4	0	0	0	0	28	35	444	307	2	35	
5	0	0	0	0	30	31	444	307	2	35	
6	0	0	0	0	28	31	441	307	2	35	
7	0	0	0	0	30	35	440	307	2	35	
8	0	0	0	0	30	35	440	307	2	35	
9	0	0	0	0	28	33	440	307	2	35	
10	0	0	0	0	30	35	438	307	2	35	
11	0	0	0	0	28	33	438	307	2	35	
12	0	0	0	0	30	35	435	307	2	35	
13	0	0	0	0	28	33	435	307	2	35	
14	0	0	0	0	28	35	436	307	2	35	
15	0	0	0	0	28	31	438	307	2	35	
0	0	0	0	0	28	35	440	307	2	35	
1	0	0	0	0	30	33	440	308	2	35	
2	0	0	0	0	30	35	440	307	2	35	
3	0	0	0	0	30	33	440	307	2	35	
4	0	0	0	0	30	33	441	307	2	35	
5	0	0	0	0	31	35	444	307	2	35	
6	0	0	0	0	30	33	448	308	2	35	
7	0	0	0	0	30	35	448	310	2	35	
8	0	0	0	0	28	35	448	310	2	35	
9	0	0	0	0	28	33	448	310	2	35	
10	0	0	0	0	28	31	448	310	2	35	
11	0	0	0	0	28	31	448	310	2	35	
12	0	0	0	0	30	35	449	310	2	35	
13	0	0	0	0	30	33	451	310	2	35	
14	0	0	0	0	31	35	451	310	2	35	
15	0	0	0	0	30	33	454	310	2	35	
0	0	0	0	0	28	33	455	310	2	35	
1	0	0	0	0	30	35	455	310	2	35	
2	0	0	0	0	30	35	460	310	2	35	
3	0	0	0	0	28	33	462	310	2	35	
4	0	0	0	0	30	35	463	312	2	35	
5	0	0	0	0	30	35	467	312	2	35	
6	0	0	0	0	28	33	472	312	2	35	
7	0	0	0	0	30	35	472	312	2	35	
8	0	0	0	0	31	35	476	312	2	35	
9	0	0	0	0	31	35	480	312	2	35	
10	0	0	0	0	30	33	481	312	2	35	
11	0	0	0	0	30	33	483	312	2	35	
12	0	0	0	0	30	35	487	312	2	35	
13	0	0	0	0	30	35	487	312	2	35	
14	0	0	0	0	28	35	492	312	2	35	
15	0	0	0	0	30	33	492	312	2	35	
0	0	0	0	0	28	31	494	312	2	35	
1	0	0	0	0	28	35	496	312	2	35	
2	0	0	0	0	30	35	496	312	2	35	
3	0	0	0	0	30	35	499	312	2	35	
4	0	0	0	0	30	35	499	312	2	35	
5	0	0	0	0	30	35	504	312	2	35	
6	0	0	0	0	30	35	504	312	2	35	
7	0	0	0	0	30	35	505	312	2	35	
8	0	0	0	0	30	35	508	312	2	35	
9	0	0	0	0	30	33	511	312	2	35	
10	0	0	0	0	30	33	512	312	2	35	
11	0	0	0	0	30	35	515	312	2	35	
12	0	0	0	0	30	35	518	312	2	35	
13	0	0	0	0	30	35	519	312	2	35	
14	0	0	0	0	30	35	519	312	2	35	
15	0	0	0	0	30	35	521	312	2	35	
0	0	0	0	0	31	35	524	312	2	35	
1	0	0	0	0	30	35	524	312	2	35	
2	0	0	0	0	30	35	524	310	2	35	
3	0	0	0	0	30	33	526	310	2	35	
4	0	0	0	0	30	35	526	310	2	35	
5	0	0	0	0	30	35	526	307	2	35	
6	0	0	0	0	28	33	527	307	2	35	
7	0	0	0	0	30	35	527	307	2	35	
8	0	0	0	0	30	35	527	307	2	35	
9	0	0	0	0	31	35	527	307	2	35	
10	0	0	0	0	31	35	527	307	2	35	
11	0	0	0	0	30	35	531	307	2	35	
12	0	0	0	0	30	35	531	307	2	35	
13	0	0	0	0	30	35	536	307	2	35	
14	0	0	0	0	28	35	536	307	2	35	
15	0	0	0	0	30	35	536	307	2	35	
0	0	0	0	0	28	35	537	307	2	35	
1	0	0	0	0	31	35	540	310	2	35	
2	0	0	0	0	30	35	540	310	2	35	
3	0	0	0	0	30	35	540	310	2	35	
4	0	0	0	0	30	35	540	312	2	35	
5	0	0	0	0	30	35	542	312	2	35	
6	0	0	0	0	28	35	542	312	2	35	
7	0	0	0	0	30	35	542	312	2	35	
8	0	0	0	0	31	38	542	312	2	35	
9	0	0	0	0	30	33	542	312	2	35	
10	0	0	0	0	30	35	542	312	2	35	
11	0	0	0	0	28	33	542	312	2	35	
12	0	0	0	0	30	35	543	312	2	35	
13	0	0	0	0	30	35	543	312	2	35	
14	0	0	0	0	30	35	543	312	2	35	
15	0	0	0	0	30	35	543	312	2	35	
0	0	0	0	0	30	35	543	312	2	35	
1	0	0	0	0	31	35	543	312	2	35	
2	0	0	0	0	30	35	543	312	2	35	
3	0	0	0	0	28	35	543	312	2	35	
4	0	0	0	0	30	35	547	312	2	35	
5	0	0	0	0	30	35	547	312	2	35	
6	0	0	0	0	28	33	547	312	2	35	
7	0	0	0	0	30	35	547	312	2	35	
8	0	0	0	0	30	35	547	312	2	35	
9	0	0	0	0	30	35	543	312	2	35	
10	0	0	0	0	28	35	543	312	2	35	
11	0	0	0	0	30	35	543	312	2	35	
12	0	0	0	0	28	35	543	312	2	35	
13	0	0	0	0	30	35	543	312	2	35	
14	0	0	0	0	28	35	543	312	2	35	
15	0	0	0	0	30	33	543	312	2	35	
0	0	0	0	0	30	35	543	312	2	35	
1	0	0	0	0	30	35	543	312	2	35	
2	0	0	0	0	30	35	543	312	2	35	
3	0	0	0	0	30	35	543	312	2	35	
4	0	0	0	0	30	35	543	310	2	35	
5	0	0	0	0	30	35	543	310	2	35	
6	0	0	0	0	28	35	543	310	2	35	
7	0	0	0	0	30	35	543	310	2	35	
8	0	0	0	0	28	35	543	307	2	35	
9	0	0	0	0	30	33	543	307	2	35	
10	0	0	0	0	28	31	543	307	2	35	
11	0	0	0	0	28	31	543	307	2	35	
12	0	0	0	0	30	35	543	307	2	35	
13	0	0	0	0	30	33	543	307	2	35	
14	0	0	0	0	28	33	543	307	2	35	
15	0	0	0	0	30	33	542	307	2	35	
0	0	0	0	0	30	33	542	307	2	35	
1	0	0	0	0	30	35	540	307	2	35	
2	0	0	0	0	30	35	540	307	2	35	
3	0	0	0	0	28	35	540	307	2	35	
4	0	0	0	0	30	35	540	308	2	35	
5	0	0	0	0	28	35	540	310	2	35	
6	0	0	0	0	28	31	540	310	2	35	
7	0	0	0	0	31	35	540	310	2	35	
8	0	0	0	0	30	35	540	312	2	35	
9	0	0	0	0	30	35	540	312	2	35	
10	0	0	0	0	30	35	540	312	2	35	
11	0	0	0	0	31	35	540	312	2	35	
12	0	0	0	0	30	35	542	312	2	35	
13	0	0	0	0	30	35	542	312	2	35	
14	0	0	0	0	30	38	542	312	2	35	
15	0	0	0	0	30	33	542	312	2	35	
0	0	0	0	0	28	33	542	312	2	35	
1	0	0	0	0	28	31	540	312	2	35	
2	0	0	0	0	31	35	540	312	2	35	
3	0	0	0	0	30	35	540	312	2	35	
4	0	0	0	0	30	35	540	312	2	35	
5	0	0	0	0	30	35	537	312	2	35	
6	0	0	0	0	30	35	537	312	2	35	
7	0	0	0	0	28	35	536	312	2	35	
8	0	0	0	0	30	35	536	312	2	35	
9	0	0	0	0	28	33	536	312	2	35	
10	0	0	0	0	28	35	536	312	2	35	
11	0	0	0	0	30	35	536	312	2	35	
12	0	0	0	0	30	35	536	312	2	35	
13	0	0	0	0	30	35	537	312	2	35	
14	0	0	0	0	30	35	537	312	2	35	
15	0	0	0	0	30	35	540	312	2	35	
0	0	0	0	0	28	34	540	312	2	35	
1	0	0	0	0	30	35	540	312	2	35	
2	0	0	0	0	31	36	540	312	2	35	
3	0	0	0	0	28	33	540	312	2	35	
4	0	0	0	0	28	35	537	312	2	35	
5	0	0	0	0	30	35	536	312	2	35	
6	0	0	0	0	30	35	536	312	2	35	
7	0	0	0	0	30	35	536	312	2	35	
8	0	0	0	0	30	35	536	312	2	35	
9	0	0	0	0	30	35	536	312	2	35	
10	0	0	0	0	30	35	536	312	2	35	
11	0	0	0	0	28	35	536	312	2	35	
12	0	0	0	0	30	35	536	312	2	35	
13	0	0	0	0	28	35	536	312	2	35	
14	0	0	0	0	28	35	536	312	2	35	
15	0	0	0	0	28	33	536	312	2	35	
0	0	0	0	0	28	35	536	312	2	35	
1	0	0	0	0	28	35	536	312	2	35	
2	0	0	0	0	30	35	536	312	2	35	
3	0	0	0	0	28	35	536	312	2	35	
4	0	0	0	0	30	35	536	312	2	35	
5	0	0	0	0	30	35	536	312	2	35	
6	0	0	0	0	31	35	536	312	2	35	
7	0	0	0	0	30	35	536	312	2	35	
8	0	0	0	0	30	35	536	312	2	35	
9	0	0	0	0	28	33	536	312	2	35	
10	0	0	0	0	30	35	536	312	2	35	
11	0	0	0	0	28	33	534	312	2	35	
12	0	0	0	0	30	35	531	312	2	35	
13	0	0	0	0	31	35	531	312	2	35	
14	0	0	0	0	30	33	531	312	2	35	
15	0	0	0	0	30	34	531	312	2	35	
0	0	0	0	0	30	35	531	312	2	35	
1	0	0	0	0	30	35	531	312	2	35	
2	0	0	0	0	30	35	531	312	2	35	
3	0	0	0	0	28	35	531	312	2	35	
4	0	0	0	0	30	35	534	312	2	35	
5	0	0	0	0	30	35	536	312	2	35	
6	0	0	0	0	31	38	536	312	2	35	
7	0	0	0	0	30	35	536	312	2	35	
8	0	0	0	0	28	35	536	312	2	35	
9	0	0	0	0	28	35	536	312	2	35	
10	0	0	0	0	30	35	536	312	2	35	
11	0	0	0	0	30	35	536	312	2	35	
12	0	0	0	0	30	33	536	312	2	35	
13	0	0	0	0	30	35	536	312	2	35	
14	0	0	0	0	30	38	536	312	2	35	
15	0	0	0	0	30	33	536	312	2	35	
0	0	0	0	0	28	33	534	312	2	35	
1	0	0	0	0	28	31	531	310	2	35	
2	0	0	0	0	31	35	531	310	2	35	
3	0	0	0	0	30	35	531	308	2	35	
4	0	0	0	0	30	35	531	307	2	35	
5	0	0	0	0	30	35	531	307	2	35	
6	0	0	0	0	30	35	531	307	2	35	
7	0	0	0	0	30	35	531	307	2	35	
8	0	0	0	0	30	35	531	307	2	35	
9	0	0	0	0	28	33	531	307	2	35	
10	0	0	0	0	31	35	532	307	2	35	
11	0	0	0	0	30	33	534	307	2	35	
12	0	0	0	0	30	33	534	307	2	35	
13	0	0	0	0	30	35	534	307	2	35	
14	0	0	0	0	30	33	534	307	2	35	
15	0	0	0	0	30	33	534	307	2	35	
0	0	0	0	0	30	33	531	307	2	35	
1	0	0	0	0	30	34	531	307	2	35	
2	0	0	0	0	30	35	531	307	2	35	
3	0	0	0	0	28	33	529	307	2	35	
4	0	0	0	0	30	35	527	307	2	35	
5	0	0	0	0	30	35	527	307	2	35	
6	0	0	0	0	30	36	527	307	2	35	
7	0	0	0	0	30	35	527	307	2	35	
8	0	0	0	0	30	33	527	307	2	35	
9	0	0	0	0	30	33	527	307	2	35	
10	0	0	0	0	30	33	527	310	2	35	
11	0	0	0	0	30	33	527	310	2	35	
12	0	0	0	0	30	35	527	310	2	35	
13	0	0	0	0	30	34	527	310	2	35	
14	0	0	0	0	28	35	529	310	2	35	
15	0	0	0	0	30	33	529	312	2	35	
0	0	0	0	0	28	35	529	312	2	35	
1	0	0	0	0	28	33	531	312	2	35	
2	0	0	0	0	30	35	531	312	2	35	
3	0	0	0	0	30	35	531	312	2	35	
4	0	0	0	0	30	35	529	312	2	35	
5	0	0	0	0	30	35	529	312	2	35	
6	0	0	0	0	30	35	527	312	2	35	
7	0	0	0	0	30	35	527	312	2	35	
8	0	0	0	0	30	35	527	312	2	35	
9	0	0	0	0	30	35	527	312	2	35	
10	0	0	0	0	30	35	527	312	2	35	
11	0	0	0	0	28	31	527	312	2	35	
12	0	0	0	0	30	35	527	312	2	35	
13	0	0	0	0	30	33	527	312	2	35	
14	0	0	0	0	30	35	527	312	2	35	
15	0	0	0	0	30	35	527	312	2	35	
0	0	0	0	0	30	34	527	312	2	35	
1	0	0	0	0	30	35	527	312	2	35	
2	0	0	0	0	30	35	527	312	2	35	
3	0	0	0	0	28	35	527	312	2	35	
4	0	0	0	0	28	35	527	310	2	35	
5	0	0	0	0	30	35	527	310	2	35	
6	0	0	0	0	28	35	529	310	2	35	
7	0	0	0	0	30	35	529	310	2	35	
8	0	0	0	0	30	33	529	308	2	35	
9	0	0	0	0	30	35	527	307	2	35	
10	0	0	0	0	30	35	527	310	2	35	
11	0	0	0	0	30	33	527	310	2	35	
12	0	0	0	0	30	33	527	310	2	35	
13	0	0	0	0	30	35	527	310	2	35	
14	0	0	0	0	30	36	527	310	2	35	
15	0	0	0	0	28	33	527	310	2	35	
0	0	0	0	0	28	35	527	310	2	35	
1	0	0	0	0	28	35	527	310	2	35	
2	0	0	0	0	31	35	527	310	2	35	
3	0	0	0	0	30	35	527	310	2	35	
4	0	0	0	0	30	35	527	310	2	35	
5	0	0	0	0	30	35	527	310	2	35	
6	0	0	0	0	30	34	527	310	2	35	
7	0	0	0	0	30	35	529	310	2	35	
8	0	0	0	0	30	35	529	312	2	35	
9	0	0	0	0	31	35	529	310	2	35	
10	0	0	0	0	30	31	531	310	2	35	
11	0	0	0	0	28	35	531	310	2	35	
12	0	0	0	0	30	33	531	310	2	35	
13	0	0	0	0	30	35	531	310	2	35	
14	0	0	0	0	30	35	529	310	2	35	
15	0	0	0	0	30	35	529	310	2	35	
0	0	0	0	0	30	33	527	310	2	35	
1	0	0	0	0	30	35	527	310	2	35	
2	0	0	0	0	30	35	527	310	2	35	
3	0	0	0	0	30	33	527	307	2	35	
4	0	0	0	0	31	35	527	307	2	35	
5	0	0	0	0	30	35	527	307	2	35	
6	0	0	0	0	28	35	527	307	2	35	
7	0	0	0	0	30	35	527	307	2	35	
8	0	0	0	0	30	35	529	307	2	35	
9	0	0	0	0	30	33	529	307	2	35	
10	0	0	0	0	30	35	531	307	2	35	
11	0	0	0	0	30	33	531	307	2	35	
12	0	0	0	0	30	33	531	307	2	35	
13	0	0	0	0	30	35	531	307	2	35	
14	0	0	0	0	28	35	531	307	2	35	
15	0	0	0	0	30	31	531	307	2	35	
0	0	0	0	0	30	33	531	307	2	35	
1	0	0	0	0	28	31	531	307	2	35	
2	0	0	0	0	31	35	531	307	2	35	
3	0	0	0	0	30	35	531	307	2	35	
4	0	0	0	0	30	35	529	307	2	35	
5	0	0	0	0	30	34	529	307	2	35	
6	0	0	0	0	30	35	527	308	2	35	
7	0	0	0	0	30	35	527	310	2	35	
8	0	0	0	0	30	35	527	310	2	35	
9	0	0	0	0	30	35	527	310	2	35	
10	0	0	0	0	30	33	527	312	2	35	
11	0	0	0	0	31	36	527	312	2	35	
12	0	0	0	0	30	35	529	312	2	35	
13	0	0	0	0	30	35	529	312	2	35	
14	0	0	0	0	30	33	531	312	2	35	
15	0	0	0	0	30	33	531	312	2	35	
0	0	0	0	0	30	33	531	312	2	35	
1	0	0	0	0	30	35	531	312	2	35	
2	0	0	0	0	30	35	531	312	2	35	
3	0	0	0	0	28	33	531	312	2	35	
4	0	0	0	0	30	35	531	312	2	35	
5	0	0	0	0	30	31	531	312	2	35	
6	0	0	0	0	30	33	531	312	2	35	
7	0	0	0	0	30	35	529	312	2	35	
8	0	0	0	0	30	35	529	312	2	35	
9	0	0	0	0	30	35	527	312	2	35	
10	0	0	0	0	30	35	527	312	2	35	
11	0	0	0	0	30	35	527	312	2	35	
12	0	0	0	0	30	34	527	312	2	35	
13	0	0	0	0	30	35	527	312	2	35	
14	0	0	0	0	28	35	527	312	2	35	
15	0	0	0	0	28	33	527	312	2	35	
0	0	0	0	0	31	38	527	312	2	35	
1	0	0	0	0	30	35	527	312	2	35	
2	0	0	0	0	30	35	529	312	2	35	
3	0	0	0	0	30	35	531	312	2	35	
4	0	0	0	0	30	35	531	312	2	35	
5	0	0	0	0	30	35	531	312	2	35	
6	0	0	0	0	30	35	531	312	2	35	
7	0	0	0	0	30	35	531	312	2	35	
8	0	0	0	0	30	35	531	312	2	35	
9	0	0	0	0	30	33	529	312	2	35	
10	0	0	0	0	30	33	529	312	2	35	
11	0	0	0	0	31	35	527	312	2	35	
12	0	0	0	0	31	35	527	312	2	35	
13	0	0	0	0	30	35	527	312	2	35	
14	0	0	0	0	30	33	527	312	2	35	
15	0	0	0	0	30	35	527	312	2	35	
0	0	0	0	0	30	33	527	312	2	35	
1	0	0	0	0	30	35	527	312	2	35	
2	0	0	0	0	30	35	527	312	2	35	
3	0	0	0	0	30	33	527	312	2	35	
4	0	0	0	0	28	35	527	312	2	35	
5	0	0	0	0	30	35	527	312	2	35	
6	0	0	0	0	31	36	529	312	2	35	
7	0	0	0	0	30	35	529	312	2	35	
8	0	0	0	0	30	35	531	312	2	35	
9	0	0	0	0	30	35	531	312	2	35	
10	0	0	0	0	28	35	531	312	2	35	
11	0	0	0	0	30	35	531	312	2	35	
12	0	0	0	0	30	35	531	312	2	35	
13	0	0	0	0	30	35	531	312	2	35	
14	0	0	0	0	28	35	529	312	2	35	
15	0	0	0	0	30	33	529	312	2	35	
0	0	0	0	0	30	35	527	312	2	35	
1	0	0	0	0	31	35	527	312	2	35	
2	0	0	0	0	31	35	527	310	2	35	
3	0	0	0	0	30	35	527	310	2	35	
4	0	0	0	0	30	35	527	310	2	35	
5	0	0	0	0	30	35	527	310	2	35	
6	0	0	0	0	30	35	527	310	2	35	
7	0	0	0	0	30	35	527	308	2	35	
8	0	0	0	0	30	35	527	310	2	35	
9	0	0	0	0	30	33	527	307	2	35	
10	0	0	0	0	30	31	527	307	2	35	
11	0	0	0	0	30	35	527	307	2	35	
12	0	0	0	0	30	35	529	308	2	35	
13	0	0	0	0	30	35	529	310	2	35	
14	0	0	0	0	30	33	529	310	2	35	
15	0	0	0	0	30	33	529	307	2	35	
0	0	0	0	0	30	33	529	307	2	35	
1	0	0	0	0	30	35	529	308	2	35	
2	0	0	0	0	30	35	527	307	2	35	
3	0	0	0	0	28	33	527	308	2	35	
4	0	0	0	0	31	35	527	310	2	35	
5	0	0	0	0	30	35	527	310	2	35	
6	0	0	0	0	30	35	527	308	2	35	
7	0	0	0	0	30	35	527	308	2	35	
8	0	0	0	0	30	33	527	307	2	35	
9	0	0	0	0	30	33	527	308	2	35	
10	0	0	0	0	30	35	527	308	2	35	
11	0	0	0	0	30	35	527	310	2	35	
12	0	0	0	0	30	35	527	310	2	35	
13	0	0	0	0	30	35	527	310	2	35	
14	0	0	0	0	28	35	527	310	2	35	
15	0	0	0	0	28	31	527	310	2	35	
0	0	0	0	0	28	31	527	312	2	35	
1	0	0	0	0	30	35	527	312	2	35	
2	0	0	0	0	31	35	527	312	2	35	
3	0	0	0	0	30	35	527	312	2	35	
4	0	0	0	0	30	35	527	312	2	35	
5	0	0	0	0	30	35	527	312	2	35	
6	0	0	0	0	30	34	527	312	2	35	
7	0	0	0	0	30	35	527	312	2	35	
8	0	0	0	0	28	35	527	312	2	35	
9	0	0	0	0	28	33	527	312	2	35	
10	0	0	0	0	30	35	527	312	2	35	
11	0	0	0	0	31	35	526	312	2	35	
12	0	0	0	0	30	35	526	312	2	35	
13	0	0	0	0	30	35	526	312	2	35	
14	0	0	0	0	30	35	526	312	2	35	
15	0	0	0	0	30	35	526	312	2	35	
0	0	0	0	0	30	35	527	312	2	35	
1	0	0	0	0	30	35	527	312	2	35	
2	0	0	0	0	30	35	527	312	2	35	
3	0	0	0	0	28	35	527	312	2	35	
4	0	0	0	0	28	35	527	312	2	35	
5	0	0	0	0	30	35	527	312	2	35	
6	0	0	0	0	28	35	527	312	2	35	
7	0	0	0	0	30	35	527	312	2	35	
8	0	0	0	0	30	34	527	312	2	35	
9	0	0	0	0	30	35	527	312	2	35	
10	0	0	0	0	30	35	527	312	2	35	
11	0	0	0	0	30	33	527	312	2	35	
12	0	0	0	0	30	35	527	312	2	35	
13	0	0	0	0	28	35	527	312	2	35	
14	0	0	0	0	28	35	527	312	2	35	
15	0	0	0	0	28	33	526	312	2	35	
0	0	0	0	0	28	33	526	312	2	35	
1	0	0	0	0	28	35	527	312	2	35	
2	0	0	0	0	30	35	527	312	2	35	
3	0	0	0	0	30	35	527	310	2	35	
4	0	0	0	0	30	35	527	310	2	35	
5	0	0	0	0	31	35	527	310	2	35	
6	0	0	0	0	31	35	527	310	2	35	
7	0	0	0	0	30	35	527	312	2	35	
8	0	0	0	0	30	35	527	310	2	35	
9	0	0	0	0	30	33	527	310	2	35	
10	0	0	0	0	30	31	527	310	2	35	
11	0	0	0	0	30	35	527	310	2	35	
12	0	0	0	0	30	35	527	310	2	35	
13	0	0	0	0	30	33	527	310	2	35	
14	0	0	0	0	31	35	527	310	2	35	
15	0	0	0	0	31	35	526	310	2	35	
0	0	0	0	0	30	33	526	312	2	35	
1	0	0	0	0	30	35	526	312	2	35	
2	0	0	0	0	30	35	524	312	2	35	
3	0	0	0	0	28	33	524	312	2	35	
4	0	0	0	0	28	35	524	312	2	35	
5	0	0	0	0	30	33	524	312	2	35	
6	0	0	0	0	31	38	524	312	2	35	
7	0	0	0	0	30	35	524	312	2	35	
8	0	0	0	0	30	35	526	312	2	35	
9	0	0	0	0	30	35	526	312	2	35	
10	0	0	0	0	31	35	526	312	2	35	
11	0	0	0	0	30	35	527	312	2	35	
12	0	0	0	0	30	33	527	312	2	35	
13	0	0	0	0	30	35	527	312	2	35	
14	0	0	0	0	28	35	527	312	2	35	
15	0	0	0	0	31	35	527	312	2	35	
0	0	0	0	0	30	35	527	312	2	35	
1	0	0	0	0	28	33	526	312	2	35	
2	0	0	0	0	30	35	526	312	2	35	
3	0	0	0	0	30	35	524	312	2	35	
4	0	0	0	0	30	35	524	312	2	35	
5	0	0	0	0	30	35	521	312	2	35	
6	0	0	0	0	30	35	519	312	2	35	
7	0	0	0	0	30	35	519	312	2	35	
8	0	0	0	0	31	36	519	312	2	35	
9	0	0	0	0	28	33	519	312	2	35	
10	0	0	0	0	30	33	518	312	2	35	
11	0	0	0	0	28	33	518	312	2	35	
12	0	0	0	0	30	35	515	312	2	35	
13	0	0	0	0	30	33	515	312	2	35	
14	0	0	0	0	31	35	515	312	2	35	
15	0	0	0	0	30	35	515	312	2	35	
0	0	0	0	0	30	33	515	312	2	35	
1	0	0	0	0	30	35	515	312	2	35	
2	0	0	0	0	31	35	515	312	2	35	
3	0	0	0	0	28	35	515	312	2	35	
4	0	0	0	0	30	35	515	312	2	35	
5	0	0	0	0	31	35	515	310	2	35	
6	0	0	0	0	28	35	515	310	2	35	
7	0	0	0	0	30	35	515	310	2	35	
8	0	0	0	0	30	34	513	310	2	35	
9	0	0	0	0	30	34	512	310	2	35	
10	0	0	0	0	30	33	512	310	2	35	
11	0	0	0	0	30	35	511	310	2	35	
12	0	0	0	0	30	33	511	310	2	35	
13	0	0	0	0	30	35	511	310	2	35	
14	0	0	0	0	28	35	510	310	2	35	
15	0	0	0	0	30	31	510	310	2	35	
0	0	0	0	0	31	35	510	310	2	35	
1	0	0	0	0	30	35	510	310	2	35	
2	0	0	0	0	30	35	510	310	2	35	
3	0	0	0	0	30	33	510	312	2	35	
4	0	0	0	0	30	35	510	310	2	35	
5	0	0	0	0	30	35	508	312	2	35	
6	0	0	0	0	30	33	508	310	2	35	
7	0	0	0	0	30	34	508	312	2	35	
8	0	0	0	0	28	35	508	312	2	35	
9	0	0	0	0	30	33	508	312	2	35	
10	0	0	0	0	31	35	504	312	2	35	
11	0	0	0	0	30	35	504	312	2	35	
12	0	0	0	0	30	33	504	312	2	35	
13	0	0	0	0	31	35	504	312	2	35	
14	0	0	0	0	30	33	504	312	2	35	
15	0	0	0	0	31	35	502	312	2	35	
0	0	0	0	0	30	33	499	312	2	35	
1	0	0	0	0	30	35	499	312	2	35	
2	0	0	0	0	30	35	499	312	2	35	
3	0	0	0	0	28	33	499	312	2	35	
4	0	0	0	0	30	35	499	312	2	35	
5	0	0	0	0	31	35	499	312	2	35	
6	0	0	0	0	30	35	499	312	2	35	
7	0	0	0	0	31	35	499	312	2	35	
8	0	0	0	0	30	35	499	312	2	35	
9	0	0	0	0	30	35	499	312	2	35	
10	0	0	0	0	30	35	502	312	2	35	
11	0	0	0	0	30	33	502	312	2	35	
12	0	0	0	0	30	35	502	312	2	35	
13	0	0	0	0	30	35	502	312	2	35	
14	0	0	0	0	30	35	502	312	2	35	
15	0	0	0	0	30	31	504	312	2	35	
0	0	0	0	0	30	33	504	312	2	35	
1	0	0	0	0	28	33	504	312	2	35	
2	0	0	0	0	31	35	504	312	2	35	
3	0	0	0	0	30	35	504	312	2	35	
4	0	0	0	0	30	35	504	312	2	35	
5	0	0	0	0	30	35	505	312	2	35	
6	0	0	0	0	30	35	508	312	2	35	
7	0	0	0	0	30	35	508	312	2	35	
8	0	0	0	0	30	35	510	310	2	35	
9	0	0	0	0	30	33	511	310	2	35	
10	0	0	0	0	30	35	512	310	2	35	
11	0	0	0	0	30	35	515	310	2	35	
12	0	0	0	0	30	34	515	308	2	35	
13	0	0	0	0	30	34	519	307	2	35	
14	0	0	0	0	28	33	519	307	2	35	
15	0	0	0	0	30	33	519	307	2	35	
0	0	0	0	0	28	33	523	307	2	35	
1	0	0	0	0	28	33	524	307	2	35	
2	0	0	0	0	28	35	524	307	2	35	
3	0	0	0	0	28	35	526	307	2	35	
4	0	0	0	0	30	33	526	307	2	35	
5	0	0	0	0	30	33	526	307	2	35	
6	0	0	0	0	28	35	527	307	2	35	
7	0	0	0	0	30	35	527	307	2	35	
8	0	0	0	0	30	33	527	307	2	35	
9	0	0	0	0	30	35	527	307	2	35	
10	0	0	0	0	30	33	527	307	2	35	
11	0	0	0	0	30	35	527	307	2	35	
12	0	0	0	0	30	33	529	307	2	35	
13	0	0	0	0	30	35	531	307	2	35	
14	0	0	0	0	28	35	531	307	2	35	
15	0	0	0	0	30	33	531	307	2	35	
0	0	0	0	0	28	35	531	307	2	35	
1	0	0	0	0	31	35	531	307	2	35	
2	0	0	0	0	30	35	531	307	2	35	
3	0	0	0	0	30	35	531	307	2	35	
4	0	0	0	0	30	35	531	307	2	35	
5	0	0	0	0	30	34	531	307	2	35	
6	0	0	0	0	31	35	529	307	2	35	
7	0	0	0	0	30	35	527	307	2	35	
8	0	0	0	0	30	35	527	307	2	35	
9	0	0	0	0	30	33	527	307	2	35	
10	0	0	0	0	30	31	527	310	2	35	
11	0	0	0	0	28	33	527	310	2	35	
12	0	0	0	0	30	35	527	310	2	35	
13	0	0	0	0	30	35	527	310	2	35	
14	0	0	0	0	30	35	527	310	2	35	
15	0	0	0	0	30	35	527	312	2	35	
0	0	0	0	0	30	35	527	312	2	35	
1	0	0	0	0	28	35	527	310	2	35	
2	0	0	0	0	30	35	527	312	2	35	
3	0	0	0	0	30	33	527	312	2	35	
4	0	0	0	0	31	38	527	312	2	35	
5	0	0	0	0	30	33	527	312	2	35	
6	0	0	0	0	30	35	527	312	2	35	
7	0	0	0	0	31	35	527	312	2	35	
8	0	0	0	0	30	35	527	312	2	35	
9	0	0	0	0	30	35	527	312	2	35	
10	0	0	0	0	30	35	527	312	2	35	
11	0	0	0	0	30	35	527	312	2	35	
12	0	0	0	0	30	35	527	312	2	35	
13	0	0	0	0	31	35	527	312	2	35	
14	0	0	0	0	28	35	526	312	2	35	
15	0	0	0	0	30	35	526	312	2	35	
0	0	0	0	0	30	35	524	312	2	35	
1	0	0	0	0	31	38	524	312	2	35	
2	0	0	0	0	30	35	526	312	2	35	
3	0	0	0	0	30	35	526	312	2	35	
4	0	0	0	0	30	35	526	312	2	35	
5	0	0	0	0	30	35	526	312	2	35	
6	0	0	0	0	30	35	527	312	2	35	
7	0	0	0	0	30	33	527	312	2	35	
8	0	0	0	0	30	33	527	312	2	35	
9	0	0	0	0	30	35	527	312	2	35	
10	0	0	0	0	30	35	527	312	2	35	
11	0	0	0	0	30	33	527	312	2	35	
12	0	0	0	0	30	35	527	312	2	35	
13	0	0	0	0	30	34	527	312	2	35	
14	0	0	0	0	30	35	527	312	2	35	
15	0	0	0	0	28	33	527	312	2	35	
0	0	0	0	0	30	33	529	312	2	35	
1	0	0	0	0	30	35	531	312	2	35	
2	0	0	0	0	30	35	534	312	2	35	
3	0	0	0	0	28	33	536	312	2	35	
4	0	0	0	0	30	35	536	312	2	35	
5	0	0	0	0	30	35	540	312	2	35	
6	0	0	0	0	28	35	542	312	2	35	
7	0	0	0	0	31	35	543	312	2	35	
8	0	0	0	0	30	35	543	312	2	35	
9	0	0	0	0	30	35	547	312	2	35	
10	0	0	0	0	30	35	547	312	2	35	
11	0	0	0	0	30	35	545	312	2	35	
12	0	0	0	0	30	35	543	312	2	35	
13	0	0	0	0	28	35	542	312	2	35	
14	0	0	0	0	28	35	536	312	2	35	
15	0	0	0	0	28	33	531	312	2	35	
0	0	0	0	0	30	33	524	312	2	35	
1	0	0	0	0	30	33	512	312	2	35	
2	0	0	0	0	30	35	502	312	2	35	
3	0	0	0	0	30	33	487	312	2	35	
4	0	0	0	0	31	35	472	312	2	35	
5	0	0	0	0	30	33	455	312	2	35	
6	0	0	0	0	30	33	435	312	2	35	
7	0	0	0	0	30	35	415	312	2	35	
8	0	0	0	0	28	35	391	312	2	35	
9	0	0	0	0	30	33	369	312	2	35	
10	0	0	0	0	28	31	345	312	2	35	
11	0	0	0	0	28	33	319	312	2	35	
12	0	0	0	0	30	35	297	312	2	35	
13	0	0	0	0	30	31	275	312	2	35	
14	0	0	0	0	28	31	254	310	2	35	
15	0	0	0	0	30	33	231	310	2	35	
0	0	0	0	0	28	31	216	308	2	35	
1	0	0	0	0	28	31	199	307	2	35	
2	0	0	0	0	30	31	188	307	2	35	
3	0	0	0	0	30	31	176	307	2	35	
4	0	0	0	0	28	33	167	307	2	35	
5	0	0	0	0	28	33	163	307	2	35	
6	0	0	0	0	28	31	163	307	2	35	
7	0	0	0	0	28	31	167	307	2	35	
8	0	0	0	0	28	31	172	307	2	35	
9	0	0	0	0	30	33	182	307	2	35	
10	0	0	0	0	31	35	195	308	2	35	
11	0	0	0	0	30	31	211	310	2	35	
12	0	0	0	0	30	31	231	310	2	35	
13	0	0	0	0	30	33	254	310	2	35	
14	0	0	0	0	28	35	278	312	2	35	
15	0	0	0	0	30	31	304	312	2	35	
0	0	0	0	0	28	33	329	312	2	35	
1	0	0	0	0	28	35	359	312	2	35	
2	0	0	0	0	31	35	384	312	2	35	
3	0	0	0	0	30	35	412	312	2	35	
4	0	0	0	0	30	33	438	312	2	35	
5	0	0	0	0	30	35	462	312	2	35	
6	0	0	0	0	30	33	483	312	2	35	
7	0	0	0	0	30	35	504	312	2	35	
8	0	0	0	0	30	35	519	312	2	35	
9	0	0	0	0	31	35	531	312	2	35	
10	0	0	0	0	30	35	543	312	2	35	
11	0	0	0	0	30	35	547	312	2	35	
12	0	0	0	0	30	35	551	312	2	35	
13	0	0	0	0	30	35	551	312	2	35	
14	0	0	0	0	30	34	551	312	2	35	
15	0	0	0	0	30	35	547	312	2	35	
0	0	0	0	0	28	33	543	312	2	35	
1	0	0	0	0	30	35	536	312	2	35	
2	0	0	0	0	30	35	529	312	2	35	
3	0	0	0	0	28	33	524	312	2	35	
4	0	0	0	0	30	35	518	312	2	35	
5	0	0	0	0	31	36	511	312	2	35	
6	0	0	0	0	28	31	505	310	2	35	
7	0	0	0	0	30	35	504	310	2	35	
8	0	0	0	0	30	33	499	310	2	35	
9	0	0	0	0	30	35	496	310	2	35	
10	0	0	0	0	30	33	496	310	2	35	
11	0	0	0	0	30	33	496	310	2	35	
12	0	0	0	0	30	35	496	310	2	35	
13	0	0	0	0	30	35	496	310	2	35	
14	0	0	0	0	28	35	497	308	2	35	
15	0	0	0	0	28	31	499	308	2	35	
0	0	0	0	0	28	33	504	307	2	35	
1	0	0	0	0	28	35	504	307	2	35	
2	0	0	0	0	30	35	508	307	2	35	
3	0	0	0	0	30	35	511	307	2	35	
4	0	0	0	0	30	35	513	307	2	35	
5	0	0	0	0	30	35	515	307	2	35	
6	0	0	0	0	30	35	519	307	2	35	
7	0	0	0	0	30	35	519	307	2	35	
8	0	0	0	0	30	35	524	307	2	35	
9	0	0	0	0	30	35	524	307	2	35	
10	0	0	0	0	30	33	527	308	2	35	
11	0	0	0	0	28	33	527	307	2	35	
12	0	0	0	0	30	35	527	307	2	35	
13	0	0	0	0	30	33	527	307	2	35	
14	0	0	0	0	30	33	527	307	2	35	
15	0	0	0	0	30	33	527	308	2	35	
0	0	0	0	0	30	35	527	310	2	35	
1	0	0	0	0	30	35	527	310	2	35	
2	0	0	0	0	31	35	526	310	2	35	
3	0	0	0	0	28	35	524	310	2	35	
4	0	0	0	0	31	35	524	310	2	35	
5	0	0	0	0	30	33	524	310	2	35	
6	0	0	0	0	30	35	521	310	2	35	
7	0	0	0	0	30	35	521	312	2	35	
8	0	0	0	0	30	35	519	312	2	35	
9	0	0	0	0	30	35	521	312	2	35	
10	0	0	0	0	28	35	521	312	2	35	
11	0	0	0	0	30	35	524	312	2	35	
12	0	0	0	0	31	35	524	312	2	35	
13	0	0	0	0	30	35	524	312	2	35	
14	0	0	0	0	28	35	526	312	2	35	
15	0	0	0	0	30	35	526	312	2	35	
0	0	0	0	0	30	35	527	312	2	35	
1	0	0	0	0	31	35	527	312	2	35	
2	0	0	0	0	30	35	527	312	2	35	
3	0	0	0	0	30	35	527	310	2	35	
4	0	0	0	0	30	35	527	310	2	35	
5	0	0	0	0	30	35	526	310	2	35	
6	0	0	0	0	30	35	526	310	2	35	
