# OpenSignals Text File Format. Version 1
# {"98:D3:31:B2:BC:63": {"sensor": ["RAW", "RAW", "RAW", "RAW", "RAW", "RAW"], "device name": "98:D3:31:B2:BC:63", "column": ["nSeq", "I1", "I2", "I3", "I4", "A1", "A2", "A3", "A4", "A5", "A6"], "sync interval": 2, "time": "12:20:20.880", "comments": "", "device connection": "/dev/tty.bitalino-DevB", "channels": [1, 2, 3, 4, 5, 6], "keywords": "", "convertedValues": 0, "mode": 0, "digital IO": [0, 0, 0, 0, 1, 1, 1, 1], "firmware version": 771, "device": "bitalino", "position": 0, "sampling rate": 1000, "label": ["A1", "A2", "A3", "A4", "A5", "A6"], "resolution": [4, 1, 1, 1, 1, 10, 10, 10, 10, 6, 6], "date": "2020-2-14", "special": [{}, {}, {}, {}, {}, {}]}}
# EndOfHeader
1	0	0	0	0	43	25	512	308	3	35	
2	0	0	0	0	44	28	512	307	3	35	
3	0	0	0	0	44	35	511	307	3	35	
4	0	0	0	0	44	28	511	307	3	35	
5	0	0	0	0	44	31	511	307	3	35	
6	0	0	0	0	39	28	511	305	3	35	
7	0	0	0	0	43	25	512	305	3	35	
8	0	0	0	0	44	28	512	305	3	35	
9	0	0	0	0	44	28	512	305	3	35	
10	0	0	0	0	41	25	512	305	3	35	
11	0	0	0	0	41	25	512	305	3	35	
12	0	0	0	0	44	28	512	305	3	35	
13	0	0	0	0	44	28	512	305	3	35	
14	0	0	0	0	41	28	512	305	3	35	
15	0	0	0	0	44	28	512	305	3	35	
0	0	0	0	0	41	24	512	304	3	35	
1	0	0	0	0	41	25	512	304	3	35	
2	0	0	0	0	44	25	512	304	3	35	
3	0	0	0	0	41	25	512	304	3	35	
4	0	0	0	0	41	25	512	304	3	35	
5	0	0	0	0	44	28	512	304	3	35	
6	0	0	0	0	44	28	512	304	3	35	
7	0	0	0	0	41	25	511	304	3	35	
8	0	0	0	0	44	31	511	304	3	35	
9	0	0	0	0	41	25	511	304	3	35	
10	0	0	0	0	41	28	511	304	3	35	
11	0	0	0	0	41	25	511	304	3	35	
12	0	0	0	0	44	25	511	304	3	35	
13	0	0	0	0	44	28	511	304	3	35	
14	0	0	0	0	43	25	511	305	3	35	
15	0	0	0	0	44	28	511	305	3	35	
0	0	0	0	0	43	25	511	305	3	35	
1	0	0	0	0	44	28	511	305	3	35	
2	0	0	0	0	44	27	511	305	3	35	
3	0	0	0	0	39	25	511	305	3	35	
4	0	0	0	0	44	31	511	307	3	35	
5	0	0	0	0	41	28	511	307	3	35	
6	0	0	0	0	39	25	512	305	3	35	
7	0	0	0	0	43	25	512	305	3	35	
8	0	0	0	0	44	25	512	305	3	35	
9	0	0	0	0	44	25	512	305	3	35	
10	0	0	0	0	41	25	512	307	3	35	
11	0	0	0	0	43	25	512	305	3	35	
12	0	0	0	0	44	28	512	305	3	35	
13	0	0	0	0	44	30	512	305	3	35	
14	0	0	0	0	39	28	512	305	3	35	
15	0	0	0	0	43	25	512	305	3	35	
0	0	0	0	0	44	28	512	305	3	35	
1	0	0	0	0	39	28	512	305	3	35	
2	0	0	0	0	44	30	512	305	3	35	
3	0	0	0	0	44	28	512	305	3	35	
4	0	0	0	0	44	25	512	305	3	35	
5	0	0	0	0	44	28	512	305	3	35	
6	0	0	0	0	41	25	512	305	3	35	
7	0	0	0	0	41	25	512	305	3	35	
8	0	0	0	0	41	28	513	305	3	35	
9	0	0	0	0	41	25	513	305	3	35	
10	0	0	0	0	41	24	513	305	3	35	
11	0	0	0	0	39	25	513	305	3	35	
12	0	0	0	0	44	31	513	305	3	35	
13	0	0	0	0	41	25	513	305	3	35	
14	0	0	0	0	44	28	513	305	3	35	
15	0	0	0	0	41	25	513	305	3	35	
0	0	0	0	0	43	25	513	305	3	35	
1	0	0	0	0	44	25	513	305	3	35	
2	0	0	0	0	44	25	513	305	3	35	
3	0	0	0	0	39	28	513	305	3	35	
4	0	0	0	0	41	28	513	305	3	35	
5	0	0	0	0	41	25	513	305	3	35	
6	0	0	0	0	39	25	513	305	3	35	
7	0	0	0	0	44	25	513	305	3	35	
8	0	0	0	0	44	25	513	305	3	35	
9	0	0	0	0	41	25	513	307	3	35	
10	0	0	0	0	44	31	512	307	3	35	
11	0	0	0	0	43	25	512	307	3	35	
12	0	0	0	0	41	25	512	307	3	35	
13	0	0	0	0	41	25	512	307	3	35	
14	0	0	0	0	39	28	511	307	3	35	
15	0	0	0	0	41	28	511	307	3	35	
0	0	0	0	0	41	24	511	307	3	35	
1	0	0	0	0	39	24	510	307	3	35	
2	0	0	0	0	44	31	510	307	3	35	
3	0	0	0	0	41	25	510	307	3	35	
4	0	0	0	0	41	25	510	307	3	35	
5	0	0	0	0	44	30	510	307	3	35	
6	0	0	0	0	44	30	510	307	3	35	
7	0	0	0	0	41	25	510	307	3	35	
8	0	0	0	0	41	28	510	307	3	35	
9	0	0	0	0	41	25	511	307	3	35	
10	0	0	0	0	41	24	511	307	3	35	
11	0	0	0	0	39	25	511	307	3	35	
12	0	0	0	0	41	25	511	305	3	35	
13	0	0	0	0	39	25	511	305	3	35	
14	0	0	0	0	44	31	511	305	3	35	
15	0	0	0	0	41	25	511	305	3	35	
0	0	0	0	0	41	25	510	305	3	35	
1	0	0	0	0	44	28	508	305	3	35	
2	0	0	0	0	44	30	508	305	3	35	
3	0	0	0	0	44	28	508	305	3	35	
4	0	0	0	0	41	28	505	305	3	35	
5	0	0	0	0	39	24	504	305	3	35	
6	0	0	0	0	39	25	504	305	3	35	
7	0	0	0	0	44	30	504	305	3	35	
8	0	0	0	0	41	25	504	305	3	35	
9	0	0	0	0	44	28	504	305	3	35	
10	0	0	0	0	44	28	502	305	3	35	
11	0	0	0	0	41	25	502	305	3	35	
12	0	0	0	0	39	25	499	307	3	35	
13	0	0	0	0	41	25	499	307	3	35	
14	0	0	0	0	39	28	499	305	3	35	
15	0	0	0	0	39	24	499	305	3	35	
0	0	0	0	0	44	31	499	305	3	35	
1	0	0	0	0	39	24	500	305	3	35	
2	0	0	0	0	41	28	500	307	3	35	
3	0	0	0	0	41	25	502	307	3	35	
4	0	0	0	0	44	28	500	307	3	35	
5	0	0	0	0	41	25	499	307	3	35	
6	0	0	0	0	41	25	499	307	3	35	
7	0	0	0	0	44	28	499	307	3	35	
8	0	0	0	0	41	28	499	307	3	35	
9	0	0	0	0	44	31	497	307	3	35	
10	0	0	0	0	41	30	497	307	3	35	
11	0	0	0	0	39	24	496	307	3	35	
12	0	0	0	0	41	25	496	307	3	35	
13	0	0	0	0	41	25	496	305	3	35	
14	0	0	0	0	41	25	495	305	3	35	
15	0	0	0	0	39	25	494	305	3	35	
0	0	0	0	0	41	25	494	305	3	35	
1	0	0	0	0	44	28	492	305	3	35	
2	0	0	0	0	44	30	492	305	3	35	
3	0	0	0	0	39	25	492	305	3	35	
4	0	0	0	0	41	28	492	305	3	35	
5	0	0	0	0	44	28	494	305	3	35	
6	0	0	0	0	44	33	494	305	3	35	
7	0	0	0	0	41	25	496	305	3	35	
8	0	0	0	0	44	28	496	305	3	35	
9	0	0	0	0	41	25	496	305	3	35	
10	0	0	0	0	44	28	496	304	3	35	
11	0	0	0	0	41	25	497	304	3	35	
12	0	0	0	0	41	25	499	305	3	35	
13	0	0	0	0	44	28	499	305	3	35	
14	0	0	0	0	39	28	504	304	3	35	
15	0	0	0	0	41	24	504	304	3	35	
0	0	0	0	0	41	28	505	304	3	35	
1	0	0	0	0	41	28	508	304	3	35	
2	0	0	0	0	41	25	510	304	3	35	
3	0	0	0	0	41	25	512	304	3	35	
4	0	0	0	0	44	31	513	304	3	35	
5	0	0	0	0	41	25	515	304	3	35	
6	0	0	0	0	44	28	518	304	3	35	
7	0	0	0	0	41	25	519	304	3	35	
8	0	0	0	0	44	31	519	304	3	35	
9	0	0	0	0	39	25	521	304	3	35	
10	0	0	0	0	41	28	524	304	3	35	
11	0	0	0	0	41	28	524	304	3	35	
12	0	0	0	0	41	25	524	304	3	35	
13	0	0	0	0	44	31	524	304	3	35	
14	0	0	0	0	41	25	524	304	3	35	
15	0	0	0	0	44	28	524	305	3	35	
0	0	0	0	0	41	25	524	305	3	35	
1	0	0	0	0	44	31	521	305	3	35	
2	0	0	0	0	44	30	519	305	3	35	
3	0	0	0	0	39	30	519	305	3	35	
4	0	0	0	0	41	28	519	305	3	35	
5	0	0	0	0	39	25	519	305	3	35	
6	0	0	0	0	39	24	519	305	3	35	
7	0	0	0	0	44	30	519	305	3	35	
8	0	0	0	0	41	25	519	305	3	35	
9	0	0	0	0	41	25	519	305	3	35	
10	0	0	0	0	44	28	519	305	3	35	
11	0	0	0	0	44	28	519	305	3	35	
12	0	0	0	0	41	25	519	305	3	35	
13	0	0	0	0	44	30	519	305	3	35	
14	0	0	0	0	41	31	519	305	3	35	
15	0	0	0	0	44	31	519	305	3	35	
0	0	0	0	0	44	33	519	305	3	35	
1	0	0	0	0	41	28	519	305	3	35	
2	0	0	0	0	41	28	519	305	3	35	
3	0	0	0	0	41	25	519	305	3	35	
4	0	0	0	0	41	25	519	305	3	35	
5	0	0	0	0	41	25	519	305	3	35	
6	0	0	0	0	41	25	519	305	3	35	
7	0	0	0	0	41	25	519	305	3	35	
8	0	0	0	0	44	31	519	307	3	35	
9	0	0	0	0	44	28	519	307	3	35	
10	0	0	0	0	44	35	519	307	3	35	
11	0	0	0	0	41	24	519	307	3	35	
12	0	0	0	0	41	25	519	307	3	35	
13	0	0	0	0	44	31	519	307	3	35	
14	0	0	0	0	44	30	519	307	3	35	
15	0	0	0	0	41	25	519	307	3	35	
0	0	0	0	0	41	25	519	307	3	35	
1	0	0	0	0	41	25	519	307	3	35	
2	0	0	0	0	44	28	519	307	3	35	
3	0	0	0	0	39	25	519	307	3	35	
4	0	0	0	0	41	28	519	307	3	35	
5	0	0	0	0	41	24	519	307	3	35	
6	0	0	0	0	39	28	518	307	3	35	
7	0	0	0	0	41	24	518	307	3	35	
8	0	0	0	0	44	30	518	307	3	35	
9	0	0	0	0	41	25	515	307	3	35	
10	0	0	0	0	41	25	515	307	3	35	
11	0	0	0	0	41	25	515	307	3	35	
12	0	0	0	0	43	25	515	307	3	35	
13	0	0	0	0	41	25	515	307	3	35	
14	0	0	0	0	39	28	515	307	3	35	
15	0	0	0	0	39	25	515	307	3	35	
0	0	0	0	0	41	24	515	307	3	35	
1	0	0	0	0	39	25	515	307	3	35	
2	0	0	0	0	41	28	515	307	3	35	
3	0	0	0	0	41	25	515	307	3	35	
4	0	0	0	0	41	25	518	307	3	35	
5	0	0	0	0	41	25	519	307	3	35	
6	0	0	0	0	39	25	519	307	3	35	
7	0	0	0	0	41	25	521	307	3	35	
8	0	0	0	0	41	28	524	307	3	35	
9	0	0	0	0	41	28	526	307	3	35	
10	0	0	0	0	44	31	527	307	3	35	
11	0	0	0	0	39	25	527	307	3	35	
12	0	0	0	0	41	25	527	307	3	35	
13	0	0	0	0	41	25	529	307	3	35	
14	0	0	0	0	41	25	527	307	3	35	
15	0	0	0	0	41	25	527	305	3	35	
0	0	0	0	0	41	25	527	305	3	35	
1	0	0	0	0	44	31	524	305	3	35	
2	0	0	0	0	43	27	519	305	3	35	
3	0	0	0	0	41	31	515	305	3	35	
4	0	0	0	0	41	28	511	305	3	35	
5	0	0	0	0	44	28	504	305	3	35	
6	0	0	0	0	39	24	496	305	3	35	
7	0	0	0	0	41	25	486	305	3	35	
8	0	0	0	0	41	25	473	305	3	35	
9	0	0	0	0	41	25	460	305	3	35	
10	0	0	0	0	41	25	448	305	3	35	
11	0	0	0	0	41	25	430	305	3	35	
12	0	0	0	0	41	25	412	305	3	35	
13	0	0	0	0	44	28	391	305	3	35	
14	0	0	0	0	39	28	371	305	3	35	
15	0	0	0	0	41	24	352	305	3	35	
0	0	0	0	0	44	28	327	307	3	35	
1	0	0	0	0	39	25	307	307	3	35	
2	0	0	0	0	44	28	287	310	3	35	
3	0	0	0	0	44	28	270	310	3	35	
4	0	0	0	0	41	24	252	310	3	35	
5	0	0	0	0	41	24	236	312	3	35	
6	0	0	0	0	44	28	220	310	3	35	
7	0	0	0	0	44	28	207	307	3	35	
8	0	0	0	0	41	25	195	307	3	35	
9	0	0	0	0	39	24	188	305	3	35	
10	0	0	0	0	41	24	182	305	3	35	
11	0	0	0	0	39	27	179	305	3	35	
12	0	0	0	0	41	24	179	304	3	35	
13	0	0	0	0	41	24	184	304	3	35	
14	0	0	0	0	41	24	192	304	3	35	
15	0	0	0	0	41	24	204	304	3	35	
0	0	0	0	0	41	27	217	302	3	35	
1	0	0	0	0	41	24	238	302	3	35	
2	0	0	0	0	44	28	255	300	3	35	
3	0	0	0	0	39	24	284	300	3	35	
4	0	0	0	0	41	24	307	300	3	35	
5	0	0	0	0	44	31	335	300	3	35	
6	0	0	0	0	39	24	364	302	3	35	
7	0	0	0	0	41	25	391	302	3	35	
8	0	0	0	0	41	25	415	302	3	35	
9	0	0	0	0	44	28	444	304	3	35	
10	0	0	0	0	44	28	467	304	3	35	
11	0	0	0	0	44	28	487	304	3	35	
12	0	0	0	0	44	28	505	304	3	35	
13	0	0	0	0	41	25	519	304	3	35	
14	0	0	0	0	39	28	531	304	3	35	
15	0	0	0	0	44	25	540	305	3	35	
0	0	0	0	0	39	28	543	305	3	35	
1	0	0	0	0	39	24	543	305	3	35	
2	0	0	0	0	41	28	543	305	3	35	
3	0	0	0	0	41	27	540	305	3	35	
4	0	0	0	0	39	25	536	307	3	35	
5	0	0	0	0	44	31	527	307	3	35	
6	0	0	0	0	41	25	519	307	3	35	
7	0	0	0	0	44	30	513	307	3	35	
8	0	0	0	0	41	28	508	307	3	35	
9	0	0	0	0	44	28	502	307	3	35	
10	0	0	0	0	41	24	496	307	3	35	
11	0	0	0	0	39	28	492	307	3	35	
12	0	0	0	0	44	28	487	305	3	35	
13	0	0	0	0	44	28	487	305	3	35	
14	0	0	0	0	44	28	487	305	3	35	
15	0	0	0	0	44	28	487	305	3	35	
0	0	0	0	0	41	25	487	305	3	35	
1	0	0	0	0	44	28	487	305	3	35	
2	0	0	0	0	41	25	489	305	3	35	
3	0	0	0	0	39	30	492	304	3	35	
4	0	0	0	0	41	25	494	304	3	35	
5	0	0	0	0	41	28	496	304	3	35	
6	0	0	0	0	41	25	497	304	3	35	
7	0	0	0	0	41	25	499	304	3	35	
8	0	0	0	0	41	25	500	304	3	35	
9	0	0	0	0	44	28	504	304	3	35	
10	0	0	0	0	41	25	504	304	3	35	
11	0	0	0	0	44	25	504	304	3	35	
12	0	0	0	0	44	31	504	305	3	35	
13	0	0	0	0	44	28	504	305	3	35	
14	0	0	0	0	39	28	504	305	3	35	
15	0	0	0	0	44	24	504	305	3	35	
0	0	0	0	0	41	28	504	305	3	35	
1	0	0	0	0	39	25	504	305	3	35	
2	0	0	0	0	44	27	504	305	3	35	
3	0	0	0	0	41	25	504	305	3	35	
4	0	0	0	0	41	25	504	305	3	35	
5	0	0	0	0	41	25	504	307	3	35	
6	0	0	0	0	41	25	504	307	3	35	
7	0	0	0	0	41	25	505	307	3	35	
8	0	0	0	0	41	28	505	307	3	35	
9	0	0	0	0	39	25	505	307	3	35	
10	0	0	0	0	44	30	505	307	3	35	
11	0	0	0	0	41	28	505	307	3	35	
12	0	0	0	0	41	25	505	307	3	35	
13	0	0	0	0	41	25	505	307	3	35	
14	0	0	0	0	44	31	505	307	3	35	
15	0	0	0	0	41	25	505	307	3	35	
0	0	0	0	0	41	25	505	307	3	35	
1	0	0	0	0	41	25	504	307	3	35	
2	0	0	0	0	44	30	504	307	3	35	
3	0	0	0	0	39	25	504	307	3	35	
4	0	0	0	0	39	28	504	307	3	35	
5	0	0	0	0	41	30	504	307	3	35	
6	0	0	0	0	41	24	504	305	3	35	
7	0	0	0	0	44	30	504	305	3	35	
8	0	0	0	0	44	28	504	305	3	35	
9	0	0	0	0	41	25	504	305	3	35	
10	0	0	0	0	44	28	504	305	3	35	
11	0	0	0	0	39	25	504	305	3	35	
12	0	0	0	0	41	25	504	305	3	35	
13	0	0	0	0	44	31	504	305	3	35	
14	0	0	0	0	39	28	504	307	3	35	
15	0	0	0	0	41	25	504	305	3	35	
0	0	0	0	0	41	28	504	307	3	35	
1	0	0	0	0	44	28	504	307	3	35	
2	0	0	0	0	44	28	504	307	3	35	
3	0	0	0	0	41	25	504	307	3	35	
4	0	0	0	0	41	25	502	307	3	35	
5	0	0	0	0	41	25	499	307	3	35	
6	0	0	0	0	41	25	499	307	3	35	
7	0	0	0	0	41	25	499	307	3	35	
8	0	0	0	0	39	28	497	307	3	35	
9	0	0	0	0	41	25	497	307	3	35	
10	0	0	0	0	44	31	496	307	3	35	
11	0	0	0	0	39	28	496	307	3	35	
12	0	0	0	0	44	28	496	307	3	35	
13	0	0	0	0	43	25	496	307	3	35	
14	0	0	0	0	44	28	496	307	3	35	
15	0	0	0	0	41	25	496	307	3	35	
0	0	0	0	0	44	28	496	307	3	35	
1	0	0	0	0	41	25	496	307	3	35	
2	0	0	0	0	44	28	496	307	3	35	
3	0	0	0	0	44	33	496	307	3	35	
4	0	0	0	0	41	28	496	307	3	35	
5	0	0	0	0	44	31	496	307	3	35	
6	0	0	0	0	44	27	496	307	3	35	
7	0	0	0	0	41	25	496	305	3	35	
8	0	0	0	0	44	28	496	305	3	35	
9	0	0	0	0	44	28	496	305	3	35	
10	0	0	0	0	44	28	494	305	3	35	
11	0	0	0	0	41	25	494	305	3	35	
12	0	0	0	0	41	25	494	304	3	35	
13	0	0	0	0	41	25	492	304	3	35	
14	0	0	0	0	41	30	492	304	3	35	
15	0	0	0	0	41	24	492	304	3	35	
0	0	0	0	0	44	28	492	304	3	35	
1	0	0	0	0	39	28	492	304	3	35	
2	0	0	0	0	43	25	491	304	3	35	
3	0	0	0	0	41	25	489	304	3	35	
4	0	0	0	0	44	28	487	304	3	35	
5	0	0	0	0	41	25	487	305	3	35	
6	0	0	0	0	41	25	487	305	3	35	
7	0	0	0	0	41	25	487	305	3	35	
8	0	0	0	0	41	28	487	305	3	35	
9	0	0	0	0	41	28	487	305	3	35	
10	0	0	0	0	41	28	487	305	3	35	
11	0	0	0	0	41	25	487	305	3	35	
12	0	0	0	0	44	28	486	305	3	35	
13	0	0	0	0	44	28	483	305	3	35	
14	0	0	0	0	44	28	483	305	3	35	
15	0	0	0	0	41	25	483	305	3	35	
0	0	0	0	0	41	25	483	305	3	35	
1	0	0	0	0	44	31	481	305	3	35	
2	0	0	0	0	44	25	481	305	3	35	
3	0	0	0	0	44	24	480	305	3	35	
4	0	0	0	0	44	30	480	305	3	35	
5	0	0	0	0	41	24	480	305	3	35	
6	0	0	0	0	39	28	480	305	3	35	
7	0	0	0	0	41	25	480	305	3	35	
8	0	0	0	0	41	25	480	305	3	35	
9	0	0	0	0	41	25	480	305	3	35	
10	0	0	0	0	41	25	478	305	3	35	
11	0	0	0	0	41	25	476	305	3	35	
12	0	0	0	0	41	25	476	305	3	35	
13	0	0	0	0	44	28	476	305	3	35	
14	0	0	0	0	39	28	473	305	3	35	
15	0	0	0	0	41	24	472	305	3	35	
0	0	0	0	0	41	30	472	305	3	35	
1	0	0	0	0	41	24	472	305	3	35	
2	0	0	0	0	44	25	470	305	3	35	
3	0	0	0	0	39	25	467	305	3	35	
4	0	0	0	0	41	25	467	305	3	35	
5	0	0	0	0	41	25	465	305	3	35	
6	0	0	0	0	41	25	463	305	3	35	
7	0	0	0	0	41	25	463	305	3	35	
8	0	0	0	0	44	30	463	305	3	35	
9	0	0	0	0	41	25	463	305	3	35	
10	0	0	0	0	41	24	462	305	3	35	
11	0	0	0	0	41	28	462	305	3	35	
12	0	0	0	0	44	31	460	305	3	35	
13	0	0	0	0	44	31	460	305	3	35	
14	0	0	0	0	41	25	460	305	3	35	
15	0	0	0	0	39	25	457	305	3	35	
0	0	0	0	0	41	25	455	305	3	35	
1	0	0	0	0	41	25	455	305	3	35	
2	0	0	0	0	44	28	455	305	3	35	
3	0	0	0	0	39	24	455	305	3	35	
4	0	0	0	0	41	28	455	305	3	35	
5	0	0	0	0	44	31	455	305	3	35	
6	0	0	0	0	41	28	454	305	3	35	
7	0	0	0	0	41	25	451	305	3	35	
8	0	0	0	0	41	25	451	305	3	35	
9	0	0	0	0	44	28	449	305	3	35	
10	0	0	0	0	41	25	448	305	3	35	
11	0	0	0	0	41	25	448	305	3	35	
12	0	0	0	0	44	28	448	305	3	35	
13	0	0	0	0	41	25	448	307	3	35	
14	0	0	0	0	39	28	448	307	3	35	
15	0	0	0	0	44	25	448	307	3	35	
0	0	0	0	0	41	25	444	307	3	35	
1	0	0	0	0	39	24	444	307	3	35	
2	0	0	0	0	41	25	444	307	3	35	
3	0	0	0	0	41	25	444	307	3	35	
4	0	0	0	0	41	25	444	307	3	35	
5	0	0	0	0	41	25	444	307	3	35	
6	0	0	0	0	41	25	441	307	3	35	
7	0	0	0	0	41	25	441	307	3	35	
8	0	0	0	0	44	30	440	307	3	35	
9	0	0	0	0	44	28	440	307	3	35	
10	0	0	0	0	44	28	440	307	3	35	
11	0	0	0	0	41	28	440	305	3	35	
12	0	0	0	0	41	25	440	305	3	35	
13	0	0	0	0	41	25	440	305	3	35	
14	0	0	0	0	41	25	440	305	3	35	
15	0	0	0	0	41	25	440	305	3	35	
0	0	0	0	0	41	25	440	305	3	35	
1	0	0	0	0	44	28	440	305	3	35	
2	0	0	0	0	44	28	440	305	3	35	
3	0	0	0	0	39	28	440	305	3	35	
4	0	0	0	0	41	25	441	304	3	35	
5	0	0	0	0	41	24	441	304	3	35	
6	0	0	0	0	39	24	444	304	3	35	
7	0	0	0	0	41	25	444	304	3	35	
8	0	0	0	0	39	25	444	304	3	35	
9	0	0	0	0	44	31	444	304	3	35	
10	0	0	0	0	41	25	448	304	3	35	
11	0	0	0	0	41	25	448	304	3	35	
12	0	0	0	0	41	25	448	304	3	35	
13	0	0	0	0	41	25	448	304	3	35	
14	0	0	0	0	41	30	448	305	3	35	
15	0	0	0	0	41	24	448	305	3	35	
0	0	0	0	0	44	25	449	305	3	35	
1	0	0	0	0	44	25	451	305	3	35	
2	0	0	0	0	44	25	451	305	3	35	
3	0	0	0	0	41	25	455	305	3	35	
4	0	0	0	0	44	28	455	305	3	35	
5	0	0	0	0	41	25	455	305	3	35	
6	0	0	0	0	41	25	460	305	3	35	
7	0	0	0	0	41	25	462	305	3	35	
8	0	0	0	0	44	31	463	305	3	35	
9	0	0	0	0	44	28	465	305	3	35	
10	0	0	0	0	41	24	467	307	3	35	
11	0	0	0	0	41	28	472	307	3	35	
12	0	0	0	0	44	28	472	307	3	35	
13	0	0	0	0	44	28	473	307	3	35	
14	0	0	0	0	41	25	476	307	3	35	
15	0	0	0	0	44	28	480	307	3	35	
0	0	0	0	0	39	25	480	305	3	35	
1	0	0	0	0	44	28	480	307	3	35	
2	0	0	0	0	44	25	483	307	3	35	
3	0	0	0	0	41	28	483	307	3	35	
4	0	0	0	0	41	28	487	307	3	35	
5	0	0	0	0	41	28	487	305	3	35	
6	0	0	0	0	44	31	487	307	3	35	
7	0	0	0	0	43	25	492	307	3	35	
8	0	0	0	0	41	25	494	307	3	35	
9	0	0	0	0	41	25	496	307	3	35	
10	0	0	0	0	41	25	496	307	3	35	
11	0	0	0	0	44	28	497	307	3	35	
12	0	0	0	0	41	25	499	307	3	35	
13	0	0	0	0	41	25	504	307	3	35	
14	0	0	0	0	39	28	504	307	3	35	
15	0	0	0	0	41	25	504	307	3	35	
0	0	0	0	0	41	28	505	307	3	35	
1	0	0	0	0	41	28	508	307	3	35	
2	0	0	0	0	44	28	508	307	3	35	
3	0	0	0	0	44	25	508	307	3	35	
4	0	0	0	0	44	31	510	307	3	35	
5	0	0	0	0	44	25	511	307	3	35	
6	0	0	0	0	41	25	511	307	3	35	
7	0	0	0	0	44	31	511	307	3	35	
8	0	0	0	0	43	28	512	307	3	35	
9	0	0	0	0	41	25	512	307	3	35	
10	0	0	0	0	44	28	513	307	3	35	
11	0	0	0	0	44	30	513	307	3	35	
12	0	0	0	0	44	25	515	307	3	35	
13	0	0	0	0	44	31	515	307	3	35	
14	0	0	0	0	41	25	518	307	3	35	
15	0	0	0	0	44	30	519	307	3	35	
0	0	0	0	0	41	25	519	307	3	35	
1	0	0	0	0	43	25	519	307	3	35	
2	0	0	0	0	44	28	519	307	3	35	
3	0	0	0	0	41	31	519	307	3	35	
4	0	0	0	0	44	31	519	307	3	35	
5	0	0	0	0	44	25	519	307	3	35	
6	0	0	0	0	39	28	521	307	3	35	
7	0	0	0	0	44	30	521	307	3	35	
8	0	0	0	0	43	25	521	307	3	35	
9	0	0	0	0	44	30	524	307	3	35	
10	0	0	0	0	43	25	524	307	3	35	
11	0	0	0	0	44	25	524	307	3	35	
12	0	0	0	0	43	25	524	307	3	35	
13	0	0	0	0	44	27	524	307	3	35	
14	0	0	0	0	41	28	524	307	3	35	
15	0	0	0	0	44	31	524	307	3	35	
0	0	0	0	0	44	28	524	307	3	35	
1	0	0	0	0	44	35	524	307	3	35	
2	0	0	0	0	44	30	524	307	3	35	
3	0	0	0	0	43	25	524	307	3	35	
4	0	0	0	0	41	25	524	307	3	35	
5	0	0	0	0	41	25	526	307	3	35	
6	0	0	0	0	41	25	526	307	3	35	
7	0	0	0	0	44	30	526	307	3	35	
8	0	0	0	0	44	31	526	307	3	35	
9	0	0	0	0	44	31	526	307	3	35	
10	0	0	0	0	41	25	526	305	3	35	
11	0	0	0	0	41	25	526	307	3	35	
12	0	0	0	0	41	25	526	305	3	35	
13	0	0	0	0	41	25	526	305	3	35	
14	0	0	0	0	41	25	526	305	3	35	
15	0	0	0	0	41	25	526	305	3	35	
0	0	0	0	0	44	28	526	305	3	35	
1	0	0	0	0	44	30	526	305	3	35	
2	0	0	0	0	44	28	526	305	3	35	
3	0	0	0	0	39	25	526	305	3	35	
4	0	0	0	0	44	28	526	304	3	35	
5	0	0	0	0	44	31	526	304	3	35	
6	0	0	0	0	39	28	526	304	3	35	
7	0	0	0	0	41	25	526	304	3	35	
8	0	0	0	0	41	25	526	304	3	35	
9	0	0	0	0	44	28	526	304	3	35	
10	0	0	0	0	41	25	527	304	3	35	
11	0	0	0	0	44	28	527	304	3	35	
12	0	0	0	0	44	28	527	304	3	35	
13	0	0	0	0	41	25	527	304	3	35	
14	0	0	0	0	41	31	527	304	3	35	
15	0	0	0	0	44	24	527	304	3	35	
0	0	0	0	0	41	28	527	304	3	35	
1	0	0	0	0	39	25	526	304	3	35	
2	0	0	0	0	44	30	526	304	3	35	
3	0	0	0	0	41	25	526	304	3	35	
4	0	0	0	0	44	28	526	304	3	35	
5	0	0	0	0	41	25	526	305	3	35	
6	0	0	0	0	41	25	526	304	3	35	
7	0	0	0	0	43	25	526	305	3	35	
8	0	0	0	0	41	28	526	305	3	35	
9	0	0	0	0	44	28	526	305	3	35	
10	0	0	0	0	41	24	526	305	3	35	
11	0	0	0	0	39	28	526	304	3	35	
12	0	0	0	0	41	25	526	305	3	35	
13	0	0	0	0	44	28	526	305	3	35	
14	0	0	0	0	39	25	526	305	3	35	
15	0	0	0	0	41	25	526	305	3	35	
0	0	0	0	0	44	28	526	305	3	35	
1	0	0	0	0	41	25	526	305	3	35	
2	0	0	0	0	44	28	526	305	3	35	
3	0	0	0	0	39	30	526	305	3	35	
4	0	0	0	0	44	28	526	305	3	35	
5	0	0	0	0	44	24	524	305	3	35	
6	0	0	0	0	39	30	524	305	3	35	
7	0	0	0	0	44	30	524	305	3	35	
8	0	0	0	0	44	25	524	307	3	35	
9	0	0	0	0	44	31	524	307	3	35	
10	0	0	0	0	43	25	524	307	3	35	
11	0	0	0	0	41	25	521	307	3	35	
12	0	0	0	0	43	25	521	307	3	35	
13	0	0	0	0	44	25	523	307	3	35	
14	0	0	0	0	43	31	524	307	3	35	
15	0	0	0	0	41	24	524	307	3	35	
0	0	0	0	0	44	28	524	307	3	35	
1	0	0	0	0	44	31	524	307	3	35	
2	0	0	0	0	44	28	524	307	3	35	
3	0	0	0	0	41	25	524	307	3	35	
4	0	0	0	0	41	25	524	307	3	35	
5	0	0	0	0	41	25	524	307	3	35	
6	0	0	0	0	41	25	524	307	3	35	
7	0	0	0	0	41	24	524	307	3	35	
8	0	0	0	0	41	28	521	307	3	35	
9	0	0	0	0	44	28	521	307	3	35	
10	0	0	0	0	41	25	519	307	3	35	
11	0	0	0	0	44	30	519	307	3	35	
12	0	0	0	0	44	30	519	307	3	35	
13	0	0	0	0	41	25	519	307	3	35	
14	0	0	0	0	43	25	519	307	3	35	
15	0	0	0	0	41	25	519	307	3	35	
0	0	0	0	0	43	25	519	307	3	35	
1	0	0	0	0	44	25	519	307	3	35	
2	0	0	0	0	44	28	519	307	3	35	
3	0	0	0	0	41	28	519	307	3	35	
4	0	0	0	0	44	28	519	307	3	35	
5	0	0	0	0	44	31	518	307	3	35	
6	0	0	0	0	44	28	518	307	3	35	
7	0	0	0	0	43	25	518	307	3	35	
8	0	0	0	0	41	25	518	307	3	35	
9	0	0	0	0	44	30	516	307	3	35	
10	0	0	0	0	41	25	515	305	3	35	
11	0	0	0	0	41	25	515	305	3	35	
12	0	0	0	0	41	25	515	305	3	35	
13	0	0	0	0	43	25	515	305	3	35	
14	0	0	0	0	39	28	515	305	3	35	
15	0	0	0	0	43	24	515	305	3	35	
0	0	0	0	0	39	25	515	305	3	35	
1	0	0	0	0	39	28	515	305	3	35	
2	0	0	0	0	44	28	515	305	3	35	
3	0	0	0	0	44	28	515	305	3	35	
4	0	0	0	0	44	28	515	305	3	35	
5	0	0	0	0	44	31	515	305	3	35	
6	0	0	0	0	43	25	515	305	3	35	
7	0	0	0	0	41	25	515	305	3	35	
8	0	0	0	0	41	28	515	305	3	35	
9	0	0	0	0	44	31	515	305	3	35	
10	0	0	0	0	41	24	515	304	3	35	
11	0	0	0	0	44	30	515	304	3	35	
12	0	0	0	0	44	28	515	304	3	35	
13	0	0	0	0	41	25	515	304	3	35	
14	0	0	0	0	41	25	515	304	3	35	
15	0	0	0	0	41	25	515	304	3	35	
0	0	0	0	0	41	25	515	304	3	35	
1	0	0	0	0	41	25	515	304	3	35	
2	0	0	0	0	41	25	515	304	3	35	
3	0	0	0	0	39	28	515	304	3	35	
4	0	0	0	0	44	31	513	305	3	35	
5	0	0	0	0	41	30	513	305	3	35	
6	0	0	0	0	39	28	513	305	3	35	
7	0	0	0	0	44	25	513	305	3	35	
8	0	0	0	0	44	28	513	305	3	35	
9	0	0	0	0	43	25	513	305	3	35	
10	0	0	0	0	41	25	513	307	3	35	
11	0	0	0	0	44	31	513	307	3	35	
12	0	0	0	0	41	25	515	307	3	35	
13	0	0	0	0	43	25	515	307	3	35	
14	0	0	0	0	41	31	515	307	3	35	
15	0	0	0	0	44	28	515	307	3	35	
0	0	0	0	0	41	28	515	307	3	35	
1	0	0	0	0	44	31	515	307	3	35	
2	0	0	0	0	44	28	515	307	3	35	
3	0	0	0	0	44	25	515	307	3	35	
4	0	0	0	0	43	25	515	307	3	35	
5	0	0	0	0	44	25	515	307	3	35	
6	0	0	0	0	44	31	513	307	3	35	
7	0	0	0	0	44	30	513	307	3	35	
8	0	0	0	0	44	31	513	307	3	35	
9	0	0	0	0	41	25	513	307	3	35	
10	0	0	0	0	44	25	513	307	3	35	
11	0	0	0	0	41	24	513	307	3	35	
12	0	0	0	0	44	25	513	307	3	35	
13	0	0	0	0	44	30	513	307	3	35	
14	0	0	0	0	44	25	513	307	3	35	
15	0	0	0	0	43	25	513	307	3	35	
0	0	0	0	0	44	25	513	307	3	35	
1	0	0	0	0	44	30	512	307	3	35	
2	0	0	0	0	44	28	513	307	3	35	
3	0	0	0	0	44	25	512	307	3	35	
4	0	0	0	0	41	28	512	307	3	35	
5	0	0	0	0	41	25	512	307	3	35	
6	0	0	0	0	39	28	512	307	3	35	
7	0	0	0	0	43	25	512	307	3	35	
8	0	0	0	0	41	25	512	307	3	35	
9	0	0	0	0	44	30	512	307	3	35	
10	0	0	0	0	44	30	512	307	3	35	
11	0	0	0	0	44	25	512	307	3	35	
12	0	0	0	0	44	28	512	305	3	35	
13	0	0	0	0	44	30	512	305	3	35	
14	0	0	0	0	39	28	512	305	3	35	
15	0	0	0	0	41	25	512	305	3	35	
0	0	0	0	0	44	30	512	305	3	35	
1	0	0	0	0	39	25	512	305	3	35	
2	0	0	0	0	44	30	512	307	3	35	
3	0	0	0	0	44	30	513	307	3	35	
4	0	0	0	0	44	25	513	307	3	35	
5	0	0	0	0	44	30	513	307	3	35	
6	0	0	0	0	43	25	513	307	3	35	
7	0	0	0	0	43	25	513	307	3	35	
8	0	0	0	0	41	28	513	307	3	35	
9	0	0	0	0	41	25	513	307	3	35	
10	0	0	0	0	44	25	513	307	3	35	
11	0	0	0	0	39	22	513	307	3	35	
12	0	0	0	0	44	25	513	307	3	35	
13	0	0	0	0	44	30	513	307	3	35	
14	0	0	0	0	44	25	513	307	3	35	
15	0	0	0	0	43	25	513	307	3	35	
0	0	0	0	0	43	25	513	307	3	35	
1	0	0	0	0	44	25	513	305	3	35	
2	0	0	0	0	44	27	513	305	3	35	
3	0	0	0	0	39	25	513	305	3	35	
4	0	0	0	0	41	28	513	305	3	35	
5	0	0	0	0	44	30	513	305	3	35	
6	0	0	0	0	44	30	513	305	3	35	
7	0	0	0	0	44	25	515	305	3	35	
8	0	0	0	0	41	25	515	305	3	35	
9	0	0	0	0	41	25	515	305	3	35	
10	0	0	0	0	44	31	515	305	3	35	
11	0	0	0	0	44	31	515	305	3	35	
12	0	0	0	0	41	25	515	305	3	35	
13	0	0	0	0	41	25	515	305	3	35	
14	0	0	0	0	39	28	513	305	3	35	
15	0	0	0	0	39	25	513	305	3	35	
0	0	0	0	0	39	25	513	305	3	35	
1	0	0	0	0	39	28	512	305	3	35	
2	0	0	0	0	44	28	512	305	3	35	
3	0	0	0	0	44	30	511	305	3	35	
4	0	0	0	0	43	25	511	305	3	35	
5	0	0	0	0	44	28	511	305	3	35	
6	0	0	0	0	44	25	511	305	3	35	
7	0	0	0	0	44	25	511	305	3	35	
8	0	0	0	0	44	31	511	305	3	35	
9	0	0	0	0	41	25	511	307	3	35	
10	0	0	0	0	44	25	511	305	3	35	
11	0	0	0	0	44	25	512	305	3	35	
12	0	0	0	0	43	25	512	307	3	35	
13	0	0	0	0	41	25	512	305	3	35	
14	0	0	0	0	44	28	512	307	3	35	
15	0	0	0	0	41	25	513	307	3	35	
0	0	0	0	0	41	25	512	307	3	35	
1	0	0	0	0	41	25	512	307	3	35	
2	0	0	0	0	44	28	512	307	3	35	
3	0	0	0	0	39	30	512	307	3	35	
4	0	0	0	0	41	28	511	307	3	35	
5	0	0	0	0	41	25	511	307	3	35	
6	0	0	0	0	41	25	510	307	3	35	
7	0	0	0	0	44	31	508	307	3	35	
8	0	0	0	0	44	25	508	307	3	35	
9	0	0	0	0	44	25	508	307	3	35	
10	0	0	0	0	44	25	505	307	3	35	
11	0	0	0	0	44	28	504	307	3	35	
12	0	0	0	0	41	25	504	307	3	35	
13	0	0	0	0	44	25	504	307	3	35	
14	0	0	0	0	41	28	504	307	3	35	
15	0	0	0	0	41	24	504	305	3	35	
0	0	0	0	0	39	25	504	307	3	35	
1	0	0	0	0	39	25	504	307	3	35	
2	0	0	0	0	44	28	504	307	3	35	
3	0	0	0	0	43	25	504	307	3	35	
4	0	0	0	0	44	30	504	307	3	35	
5	0	0	0	0	41	25	504	307	3	35	
6	0	0	0	0	43	25	504	307	3	35	
7	0	0	0	0	43	25	504	307	3	35	
8	0	0	0	0	43	28	504	307	3	35	
9	0	0	0	0	41	25	504	307	3	35	
10	0	0	0	0	41	24	504	307	3	35	
11	0	0	0	0	44	31	504	307	3	35	
12	0	0	0	0	44	25	504	307	3	35	
13	0	0	0	0	43	25	504	307	3	35	
14	0	0	0	0	41	25	504	307	3	35	
15	0	0	0	0	41	25	499	305	3	35	
0	0	0	0	0	44	28	499	305	3	35	
1	0	0	0	0	44	25	499	307	3	35	
2	0	0	0	0	44	27	499	305	3	35	
3	0	0	0	0	39	25	497	305	3	35	
4	0	0	0	0	41	25	496	305	3	35	
5	0	0	0	0	41	30	496	305	3	35	
6	0	0	0	0	39	25	496	305	3	35	
7	0	0	0	0	44	30	496	305	3	35	
8	0	0	0	0	41	25	496	305	3	35	
9	0	0	0	0	41	25	496	305	3	35	
10	0	0	0	0	41	25	496	305	3	35	
11	0	0	0	0	41	25	496	305	3	35	
12	0	0	0	0	41	25	496	305	3	35	
13	0	0	0	0	41	25	496	305	3	35	
14	0	0	0	0	41	28	496	305	3	35	
15	0	0	0	0	41	24	496	305	3	35	
0	0	0	0	0	44	28	497	305	3	35	
1	0	0	0	0	41	25	499	304	3	35	
2	0	0	0	0	44	27	499	304	3	35	
3	0	0	0	0	44	28	502	304	3	35	
4	0	0	0	0	43	25	504	304	3	35	
5	0	0	0	0	43	25	504	304	3	35	
6	0	0	0	0	41	25	505	304	3	35	
7	0	0	0	0	44	28	508	304	3	35	
8	0	0	0	0	41	28	511	304	3	35	
9	0	0	0	0	41	28	512	304	3	35	
10	0	0	0	0	41	28	515	304	3	35	
11	0	0	0	0	39	24	515	304	3	35	
12	0	0	0	0	44	28	519	304	3	35	
13	0	0	0	0	41	25	519	304	3	35	
14	0	0	0	0	39	25	519	304	3	35	
15	0	0	0	0	41	24	524	305	3	35	
0	0	0	0	0	41	25	524	305	3	35	
1	0	0	0	0	44	30	524	305	3	35	
2	0	0	0	0	44	28	524	305	3	35	
3	0	0	0	0	39	30	524	305	3	35	
4	0	0	0	0	44	31	524	305	3	35	
5	0	0	0	0	44	28	524	307	3	35	
6	0	0	0	0	39	24	524	305	3	35	
7	0	0	0	0	43	25	521	307	3	35	
8	0	0	0	0	44	25	521	307	3	35	
9	0	0	0	0	44	30	519	307	3	35	
10	0	0	0	0	44	30	519	307	3	35	
11	0	0	0	0	44	30	519	307	3	35	
12	0	0	0	0	41	25	519	307	3	35	
13	0	0	0	0	41	25	519	307	3	35	
14	0	0	0	0	41	31	519	307	3	35	
15	0	0	0	0	39	25	519	307	3	35	
0	0	0	0	0	41	24	519	307	3	35	
1	0	0	0	0	39	25	519	305	3	35	
2	0	0	0	0	44	28	519	307	3	35	
3	0	0	0	0	41	25	519	307	3	35	
4	0	0	0	0	41	25	519	305	3	35	
5	0	0	0	0	43	25	519	305	3	35	
6	0	0	0	0	44	30	519	305	3	35	
7	0	0	0	0	44	30	519	305	3	35	
8	0	0	0	0	44	31	519	305	3	35	
9	0	0	0	0	44	28	519	305	3	35	
10	0	0	0	0	39	28	519	307	3	35	
11	0	0	0	0	44	35	519	307	3	35	
12	0	0	0	0	44	31	519	307	3	35	
13	0	0	0	0	44	25	519	307	3	35	
14	0	0	0	0	44	25	519	307	3	35	
15	0	0	0	0	43	25	519	307	3	35	
0	0	0	0	0	44	30	519	307	3	35	
1	0	0	0	0	41	25	519	307	3	35	
2	0	0	0	0	44	30	519	307	3	35	
3	0	0	0	0	39	25	519	307	3	35	
4	0	0	0	0	41	28	519	307	3	35	
5	0	0	0	0	44	30	519	307	3	35	
6	0	0	0	0	44	28	519	307	3	35	
7	0	0	0	0	44	27	519	307	3	35	
8	0	0	0	0	41	25	519	307	3	35	
9	0	0	0	0	43	25	519	307	3	35	
10	0	0	0	0	43	25	519	307	3	35	
11	0	0	0	0	43	25	519	307	3	35	
12	0	0	0	0	44	31	519	307	3	35	
13	0	0	0	0	44	25	519	305	3	35	
14	0	0	0	0	41	28	519	307	3	35	
15	0	0	0	0	43	24	519	305	3	35	
0	0	0	0	0	39	25	519	305	3	35	
1	0	0	0	0	39	30	519	305	3	35	
2	0	0	0	0	41	28	519	305	3	35	
3	0	0	0	0	43	25	519	305	3	35	
4	0	0	0	0	43	25	519	305	3	35	
5	0	0	0	0	41	25	519	305	3	35	
6	0	0	0	0	44	30	519	305	3	35	
7	0	0	0	0	41	25	519	305	3	35	
8	0	0	0	0	41	28	521	305	3	35	
9	0	0	0	0	41	25	524	305	3	35	
10	0	0	0	0	44	31	524	305	3	35	
11	0	0	0	0	44	30	526	305	3	35	
12	0	0	0	0	44	30	527	305	3	35	
13	0	0	0	0	41	25	527	305	3	35	
14	0	0	0	0	44	30	529	305	3	35	
15	0	0	0	0	41	25	531	305	3	35	
0	0	0	0	0	41	25	532	304	3	35	
1	0	0	0	0	44	25	536	304	3	35	
2	0	0	0	0	44	28	536	305	3	35	
3	0	0	0	0	39	30	536	305	3	35	
4	0	0	0	0	41	28	536	304	3	35	
5	0	0	0	0	44	28	531	304	3	35	
6	0	0	0	0	39	30	527	304	3	35	
7	0	0	0	0	44	25	526	305	3	35	
8	0	0	0	0	41	25	519	305	3	35	
9	0	0	0	0	41	25	515	305	3	35	
10	0	0	0	0	44	28	508	305	3	35	
11	0	0	0	0	44	28	497	305	3	35	
12	0	0	0	0	41	25	487	305	3	35	
13	0	0	0	0	41	25	476	305	3	35	
14	0	0	0	0	39	28	462	305	3	35	
15	0	0	0	0	41	25	448	305	3	35	
0	0	0	0	0	41	25	428	305	3	35	
1	0	0	0	0	44	31	408	305	3	35	
2	0	0	0	0	44	25	390	305	3	35	
3	0	0	0	0	44	28	368	305	3	35	
4	0	0	0	0	44	28	348	305	3	35	
5	0	0	0	0	41	24	327	305	3	35	
6	0	0	0	0	41	24	307	305	3	35	
7	0	0	0	0	44	28	287	304	3	35	
8	0	0	0	0	41	25	271	304	3	35	
9	0	0	0	0	44	30	255	304	3	35	
10	0	0	0	0	41	24	240	304	3	35	
11	0	0	0	0	41	23	228	304	3	35	
12	0	0	0	0	41	24	220	304	3	35	
13	0	0	0	0	44	28	211	304	3	35	
14	0	0	0	0	41	24	207	304	3	35	
15	0	0	0	0	41	24	204	304	3	35	
0	0	0	0	0	41	24	206	304	3	35	
1	0	0	0	0	39	24	207	304	3	35	
2	0	0	0	0	41	24	216	304	3	35	
3	0	0	0	0	41	30	225	304	3	35	
4	0	0	0	0	44	28	240	304	3	35	
5	0	0	0	0	41	24	255	304	3	35	
6	0	0	0	0	41	24	275	304	3	35	
7	0	0	0	0	41	24	295	304	3	35	
8	0	0	0	0	41	24	318	304	3	35	
9	0	0	0	0	41	24	342	305	3	35	
10	0	0	0	0	41	25	366	305	3	35	
11	0	0	0	0	39	25	391	305	3	35	
12	0	0	0	0	41	25	415	307	3	35	
13	0	0	0	0	43	25	440	307	3	35	
14	0	0	0	0	39	28	460	307	3	35	
15	0	0	0	0	44	28	480	307	3	35	
0	0	0	0	0	41	28	496	307	3	35	
1	0	0	0	0	44	28	512	307	3	35	
2	0	0	0	0	44	28	524	307	3	35	
3	0	0	0	0	44	30	536	307	3	35	
4	0	0	0	0	44	28	540	307	3	35	
5	0	0	0	0	43	28	543	307	3	35	
6	0	0	0	0	44	30	543	307	3	35	
7	0	0	0	0	43	28	542	307	3	35	
8	0	0	0	0	41	28	536	307	3	35	
9	0	0	0	0	39	25	531	307	3	35	
10	0	0	0	0	41	28	526	307	3	35	
11	0	0	0	0	39	24	519	307	3	35	
12	0	0	0	0	41	25	512	307	3	35	
13	0	0	0	0	41	25	505	307	3	35	
14	0	0	0	0	44	25	499	307	3	35	
15	0	0	0	0	43	25	496	307	3	35	
0	0	0	0	0	44	25	492	307	3	35	
1	0	0	0	0	41	25	489	307	3	35	
2	0	0	0	0	44	27	487	307	3	35	
3	0	0	0	0	44	33	487	307	3	35	
4	0	0	0	0	41	28	487	307	3	35	
5	0	0	0	0	41	30	489	307	3	35	
6	0	0	0	0	44	28	492	307	3	35	
7	0	0	0	0	44	30	496	307	3	35	
8	0	0	0	0	43	25	496	307	3	35	
9	0	0	0	0	43	25	499	307	3	35	
10	0	0	0	0	41	25	504	307	3	35	
11	0	0	0	0	43	25	504	307	3	35	
12	0	0	0	0	44	25	508	307	3	35	
13	0	0	0	0	43	25	510	307	3	35	
14	0	0	0	0	44	31	511	307	3	35	
15	0	0	0	0	41	24	512	307	3	35	
0	0	0	0	0	44	28	513	307	3	35	
1	0	0	0	0	44	28	513	307	3	35	
2	0	0	0	0	44	28	515	307	3	35	
3	0	0	0	0	44	25	515	307	3	35	
4	0	0	0	0	44	25	515	307	3	35	
5	0	0	0	0	43	25	515	307	3	35	
6	0	0	0	0	44	25	515	305	3	35	
7	0	0	0	0	44	31	515	305	3	35	
8	0	0	0	0	41	28	515	305	3	35	
9	0	0	0	0	41	25	515	305	3	35	
10	0	0	0	0	44	31	515	305	3	35	
11	0	0	0	0	39	24	518	305	3	35	
12	0	0	0	0	41	25	518	305	3	35	
13	0	0	0	0	41	25	518	305	3	35	
14	0	0	0	0	44	28	518	305	3	35	
15	0	0	0	0	41	25	518	305	3	35	
0	0	0	0	0	41	25	518	307	3	35	
1	0	0	0	0	44	30	518	307	3	35	
2	0	0	0	0	44	30	518	307	3	35	
3	0	0	0	0	44	25	516	305	3	35	
4	0	0	0	0	44	31	515	305	3	35	
5	0	0	0	0	41	25	515	305	3	35	
6	0	0	0	0	44	31	515	305	3	35	
7	0	0	0	0	41	25	515	305	3	35	
8	0	0	0	0	44	25	515	305	3	35	
9	0	0	0	0	43	25	515	305	3	35	
10	0	0	0	0	43	25	515	305	3	35	
11	0	0	0	0	44	28	515	305	3	35	
12	0	0	0	0	41	25	515	305	3	35	
13	0	0	0	0	41	25	515	305	3	35	
14	0	0	0	0	44	31	515	305	3	35	
15	0	0	0	0	44	25	515	305	3	35	
0	0	0	0	0	41	28	515	305	3	35	
1	0	0	0	0	44	31	515	305	3	35	
2	0	0	0	0	44	28	515	304	3	35	
3	0	0	0	0	44	28	513	304	3	35	
4	0	0	0	0	44	28	513	304	3	35	
5	0	0	0	0	44	31	512	304	3	35	
6	0	0	0	0	41	25	512	304	3	35	
7	0	0	0	0	43	25	511	304	3	35	
8	0	0	0	0	44	28	511	304	3	35	
9	0	0	0	0	41	25	511	304	3	35	
10	0	0	0	0	41	30	510	304	3	35	
11	0	0	0	0	44	25	510	304	3	35	
12	0	0	0	0	44	25	510	304	3	35	
13	0	0	0	0	44	31	510	304	3	35	
14	0	0	0	0	43	25	510	304	3	35	
15	0	0	0	0	44	28	508	304	3	35	
0	0	0	0	0	41	25	508	304	3	35	
1	0	0	0	0	44	31	508	304	3	35	
2	0	0	0	0	44	30	508	304	3	35	
3	0	0	0	0	39	25	508	304	3	35	
4	0	0	0	0	44	25	508	304	3	35	
5	0	0	0	0	41	28	508	305	3	35	
6	0	0	0	0	44	30	508	305	3	35	
7	0	0	0	0	44	25	508	305	3	35	
8	0	0	0	0	44	25	505	305	3	35	
9	0	0	0	0	41	25	504	305	3	35	
10	0	0	0	0	44	25	504	305	3	35	
11	0	0	0	0	41	25	504	305	3	35	
12	0	0	0	0	44	28	504	307	3	35	
13	0	0	0	0	44	25	504	307	3	35	
14	0	0	0	0	44	31	504	307	3	35	
15	0	0	0	0	41	24	504	307	3	35	
0	0	0	0	0	41	24	502	307	3	35	
1	0	0	0	0	41	28	500	307	3	35	
2	0	0	0	0	44	30	499	307	3	35	
3	0	0	0	0	44	25	499	307	3	35	
4	0	0	0	0	44	25	499	307	3	35	
5	0	0	0	0	41	25	499	307	3	35	
6	0	0	0	0	44	25	499	307	3	35	
7	0	0	0	0	44	30	499	307	3	35	
8	0	0	0	0	41	28	499	307	3	35	
9	0	0	0	0	44	28	497	305	3	35	
10	0	0	0	0	44	28	497	305	3	35	
11	0	0	0	0	39	24	497	305	3	35	
12	0	0	0	0	43	25	496	305	3	35	
13	0	0	0	0	41	25	496	305	3	35	
14	0	0	0	0	41	25	496	305	3	35	
15	0	0	0	0	43	25	496	305	3	35	
0	0	0	0	0	41	25	494	305	3	35	
1	0	0	0	0	44	25	494	305	3	35	
2	0	0	0	0	44	25	492	305	3	35	
3	0	0	0	0	39	28	492	305	3	35	
4	0	0	0	0	41	28	492	305	3	35	
5	0	0	0	0	41	25	492	305	3	35	
6	0	0	0	0	44	28	492	305	3	35	
7	0	0	0	0	44	30	492	305	3	35	
8	0	0	0	0	44	28	489	305	3	35	
9	0	0	0	0	44	28	489	305	3	35	
10	0	0	0	0	44	28	487	304	3	35	
11	0	0	0	0	41	25	487	304	3	35	
12	0	0	0	0	41	25	487	304	3	35	
13	0	0	0	0	41	25	487	304	3	35	
14	0	0	0	0	39	28	487	304	3	35	
15	0	0	0	0	41	24	486	304	3	35	
0	0	0	0	0	41	25	483	305	3	35	
1	0	0	0	0	41	24	483	305	3	35	
2	0	0	0	0	41	25	483	305	3	35	
3	0	0	0	0	44	25	481	307	3	35	
4	0	0	0	0	44	25	480	307	3	35	
5	0	0	0	0	44	25	480	307	3	35	
6	0	0	0	0	44	25	480	307	3	35	
7	0	0	0	0	44	25	480	307	3	35	
8	0	0	0	0	44	31	478	307	3	35	
9	0	0	0	0	44	28	476	308	3	35	
10	0	0	0	0	41	30	476	310	3	35	
11	0	0	0	0	44	28	476	310	3	35	
12	0	0	0	0	44	30	473	310	3	35	
13	0	0	0	0	44	30	472	310	3	35	
14	0	0	0	0	44	25	472	310	3	35	
15	0	0	0	0	44	25	472	310	3	35	
0	0	0	0	0	44	25	472	310	3	35	
1	0	0	0	0	44	30	472	310	3	35	
2	0	0	0	0	44	30	467	307	3	35	
3	0	0	0	0	41	28	467	307	3	35	
4	0	0	0	0	41	28	465	307	3	35	
5	0	0	0	0	44	24	463	307	3	35	
6	0	0	0	0	41	24	463	307	3	35	
7	0	0	0	0	44	25	463	305	3	35	
8	0	0	0	0	44	25	463	305	3	35	
9	0	0	0	0	44	25	462	305	3	35	
10	0	0	0	0	44	28	460	304	3	35	
11	0	0	0	0	44	28	460	304	3	35	
12	0	0	0	0	44	28	460	304	3	35	
13	0	0	0	0	43	25	460	304	3	35	
14	0	0	0	0	39	28	457	304	3	35	
15	0	0	0	0	44	25	455	304	3	35	
0	0	0	0	0	41	25	455	304	3	35	
1	0	0	0	0	44	28	455	304	3	35	
2	0	0	0	0	44	25	455	304	3	35	
3	0	0	0	0	41	25	455	304	3	35	
4	0	0	0	0	41	25	454	304	3	35	
5	0	0	0	0	41	25	451	304	3	35	
6	0	0	0	0	44	31	451	304	3	35	
7	0	0	0	0	43	25	451	304	3	35	
8	0	0	0	0	44	30	449	304	3	35	
9	0	0	0	0	41	24	448	305	3	35	
10	0	0	0	0	44	24	448	305	3	35	
11	0	0	0	0	39	25	448	305	3	35	
12	0	0	0	0	44	28	448	305	3	35	
13	0	0	0	0	43	25	448	305	3	35	
14	0	0	0	0	44	28	448	305	3	35	
15	0	0	0	0	44	28	448	305	3	35	
0	0	0	0	0	44	25	448	305	3	35	
1	0	0	0	0	41	25	448	305	3	35	
2	0	0	0	0	44	25	448	307	3	35	
3	0	0	0	0	44	33	448	307	3	35	
4	0	0	0	0	43	28	448	307	3	35	
5	0	0	0	0	44	24	448	307	3	35	
6	0	0	0	0	41	28	448	307	3	35	
7	0	0	0	0	44	25	448	307	3	35	
8	0	0	0	0	44	25	448	305	3	35	
9	0	0	0	0	43	25	448	305	3	35	
10	0	0	0	0	41	25	448	305	3	35	
11	0	0	0	0	43	24	448	305	3	35	
12	0	0	0	0	44	25	448	305	3	35	
13	0	0	0	0	43	25	448	305	3	35	
14	0	0	0	0	39	28	448	305	3	35	
15	0	0	0	0	44	25	449	305	3	35	
0	0	0	0	0	41	25	449	305	3	35	
1	0	0	0	0	41	28	451	305	3	35	
2	0	0	0	0	44	25	451	305	3	35	
3	0	0	0	0	44	28	452	305	3	35	
4	0	0	0	0	44	25	455	305	3	35	
5	0	0	0	0	44	28	455	305	3	35	
6	0	0	0	0	44	31	455	305	3	35	
7	0	0	0	0	44	25	460	305	3	35	
8	0	0	0	0	44	31	462	305	3	35	
9	0	0	0	0	41	25	463	305	3	35	
10	0	0	0	0	44	25	465	305	3	35	
11	0	0	0	0	41	28	467	305	3	35	
12	0	0	0	0	43	25	472	305	3	35	
13	0	0	0	0	43	25	472	305	3	35	
14	0	0	0	0	44	25	473	305	3	35	
15	0	0	0	0	44	28	476	305	3	35	
0	0	0	0	0	41	25	480	305	3	35	
1	0	0	0	0	41	25	480	305	3	35	
2	0	0	0	0	44	25	481	305	3	35	
3	0	0	0	0	39	25	483	305	3	35	
4	0	0	0	0	44	28	486	305	3	35	
5	0	0	0	0	44	28	487	307	3	35	
6	0	0	0	0	39	24	487	307	3	35	
7	0	0	0	0	44	30	489	307	3	35	
8	0	0	0	0	41	25	492	307	3	35	
9	0	0	0	0	44	25	495	307	3	35	
10	0	0	0	0	44	25	496	307	3	35	
11	0	0	0	0	44	25	497	307	3	35	
12	0	0	0	0	44	25	499	307	3	35	
13	0	0	0	0	44	25	504	307	3	35	
14	0	0	0	0	39	28	504	307	3	35	
15	0	0	0	0	43	25	504	307	3	35	
0	0	0	0	0	44	31	508	307	3	35	
1	0	0	0	0	39	30	508	307	3	35	
2	0	0	0	0	44	30	510	307	3	35	
3	0	0	0	0	44	30	511	307	3	35	
4	0	0	0	0	44	25	512	307	3	35	
5	0	0	0	0	44	31	512	307	3	35	
6	0	0	0	0	44	27	513	307	3	35	
7	0	0	0	0	44	25	515	307	3	35	
8	0	0	0	0	44	28	515	307	3	35	
9	0	0	0	0	39	25	515	307	3	35	
10	0	0	0	0	44	25	518	307	3	35	
11	0	0	0	0	44	30	519	307	3	35	
12	0	0	0	0	44	25	519	307	3	35	
13	0	0	0	0	44	31	519	307	3	35	
14	0	0	0	0	44	25	521	307	3	35	
15	0	0	0	0	44	25	524	307	3	35	
0	0	0	0	0	44	25	524	307	3	35	
1	0	0	0	0	44	28	526	307	3	35	
2	0	0	0	0	44	28	527	307	3	35	
3	0	0	0	0	39	30	527	307	3	35	
4	0	0	0	0	44	27	527	307	3	35	
5	0	0	0	0	44	28	527	307	3	35	
6	0	0	0	0	39	28	527	307	3	35	
7	0	0	0	0	44	28	527	307	3	35	
8	0	0	0	0	44	30	527	307	3	35	
9	0	0	0	0	44	25	527	307	3	35	
10	0	0	0	0	44	30	527	307	3	35	
11	0	0	0	0	44	30	527	307	3	35	
12	0	0	0	0	44	25	527	307	3	35	
13	0	0	0	0	44	28	527	307	3	35	
14	0	0	0	0	41	28	527	307	3	35	
15	0	0	0	0	44	31	527	307	3	35	
0	0	0	0	0	41	28	529	307	3	35	
1	0	0	0	0	39	24	529	307	3	35	
2	0	0	0	0	44	30	531	307	3	35	
3	0	0	0	0	44	30	531	305	3	35	
4	0	0	0	0	44	30	531	305	3	35	
5	0	0	0	0	43	25	531	305	3	35	
6	0	0	0	0	43	25	534	305	3	35	
7	0	0	0	0	41	25	534	305	3	35	
8	0	0	0	0	43	28	536	305	3	35	
9	0	0	0	0	39	25	536	305	3	35	
10	0	0	0	0	43	24	534	305	3	35	
11	0	0	0	0	44	31	534	305	3	35	
12	0	0	0	0	41	25	534	304	3	35	
13	0	0	0	0	44	25	532	304	3	35	
14	0	0	0	0	44	25	531	304	3	35	
15	0	0	0	0	43	25	531	304	3	35	
0	0	0	0	0	44	25	531	304	3	35	
1	0	0	0	0	44	30	531	304	3	35	
2	0	0	0	0	44	28	531	304	3	35	
3	0	0	0	0	39	25	531	304	3	35	
4	0	0	0	0	44	25	531	304	3	35	
5	0	0	0	0	41	25	531	305	3	35	
6	0	0	0	0	44	31	531	305	3	35	
7	0	0	0	0	44	25	531	305	3	35	
8	0	0	0	0	44	25	531	305	3	35	
9	0	0	0	0	44	25	531	305	3	35	
10	0	0	0	0	44	25	531	305	3	35	
11	0	0	0	0	44	30	531	307	3	35	
12	0	0	0	0	44	25	534	307	3	35	
13	0	0	0	0	44	28	534	307	3	35	
14	0	0	0	0	43	31	534	307	3	35	
15	0	0	0	0	44	24	534	307	3	35	
0	0	0	0	0	44	28	534	307	3	35	
1	0	0	0	0	44	28	534	307	3	35	
2	0	0	0	0	44	28	532	307	3	35	
3	0	0	0	0	44	28	531	307	3	35	
4	0	0	0	0	44	28	531	307	3	35	
5	0	0	0	0	44	28	531	307	3	35	
6	0	0	0	0	41	25	531	307	3	35	
7	0	0	0	0	44	25	531	307	3	35	
8	0	0	0	0	44	33	531	305	3	35	
9	0	0	0	0	43	25	531	305	3	35	
10	0	0	0	0	44	24	531	305	3	35	
11	0	0	0	0	41	24	531	305	3	35	
12	0	0	0	0	44	30	531	305	3	35	
13	0	0	0	0	41	25	531	305	3	35	
14	0	0	0	0	41	25	531	304	3	35	
15	0	0	0	0	43	25	531	304	3	35	
0	0	0	0	0	41	25	531	304	3	35	
1	0	0	0	0	41	25	531	304	3	35	
2	0	0	0	0	44	28	531	305	3	35	
3	0	0	0	0	39	28	531	305	3	35	
4	0	0	0	0	43	28	531	304	3	35	
5	0	0	0	0	44	31	531	304	3	35	
6	0	0	0	0	41	28	529	304	3	35	
7	0	0	0	0	44	25	529	304	3	35	
8	0	0	0	0	44	25	529	304	3	35	
9	0	0	0	0	44	30	527	304	3	35	
10	0	0	0	0	44	25	527	305	3	35	
11	0	0	0	0	44	30	527	305	3	35	
12	0	0	0	0	44	30	527	305	3	35	
13	0	0	0	0	44	25	527	305	3	35	
14	0	0	0	0	41	28	527	305	3	35	
15	0	0	0	0	44	28	527	305	3	35	
0	0	0	0	0	44	30	527	305	3	35	
1	0	0	0	0	44	31	527	305	3	35	
2	0	0	0	0	44	30	527	305	3	35	
3	0	0	0	0	44	25	527	305	3	35	
4	0	0	0	0	44	25	527	305	3	35	
5	0	0	0	0	43	25	527	305	3	35	
6	0	0	0	0	44	30	527	305	3	35	
7	0	0	0	0	44	30	527	305	3	35	
8	0	0	0	0	44	31	527	305	3	35	
9	0	0	0	0	41	25	527	305	3	35	
10	0	0	0	0	44	25	526	305	3	35	
11	0	0	0	0	44	31	526	305	3	35	
12	0	0	0	0	44	25	526	305	3	35	
13	0	0	0	0	44	25	526	305	3	35	
14	0	0	0	0	44	25	526	305	3	35	
15	0	0	0	0	43	25	524	305	3	35	
0	0	0	0	0	44	28	524	305	3	35	
1	0	0	0	0	44	25	524	305	3	35	
2	0	0	0	0	44	28	524	305	3	35	
3	0	0	0	0	44	31	524	305	3	35	
4	0	0	0	0	44	31	524	305	3	35	
5	0	0	0	0	41	24	524	305	3	35	
6	0	0	0	0	44	31	524	305	3	35	
7	0	0	0	0	44	31	524	305	3	35	
8	0	0	0	0	44	25	524	305	3	35	
9	0	0	0	0	44	25	521	305	3	35	
10	0	0	0	0	44	25	521	305	3	35	
11	0	0	0	0	44	30	519	305	3	35	
12	0	0	0	0	43	25	519	305	3	35	
13	0	0	0	0	44	25	519	305	3	35	
14	0	0	0	0	41	31	519	305	3	35	
15	0	0	0	0	44	24	519	305	3	35	
0	0	0	0	0	41	24	519	307	3	35	
1	0	0	0	0	39	25	519	307	3	35	
2	0	0	0	0	44	28	519	305	3	35	
3	0	0	0	0	44	25	519	307	3	35	
4	0	0	0	0	44	30	519	307	3	35	
5	0	0	0	0	44	25	519	307	3	35	
6	0	0	0	0	44	25	519	307	3	35	
7	0	0	0	0	44	25	519	307	3	35	
8	0	0	0	0	44	28	519	307	3	35	
9	0	0	0	0	41	25	519	307	3	35	
10	0	0	0	0	44	28	519	305	3	35	
11	0	0	0	0	44	28	519	307	3	35	
12	0	0	0	0	44	25	519	307	3	35	
13	0	0	0	0	44	25	519	307	3	35	
14	0	0	0	0	41	25	519	307	3	35	
15	0	0	0	0	44	25	519	307	3	35	
0	0	0	0	0	44	30	519	307	3	35	
1	0	0	0	0	44	27	519	307	3	35	
2	0	0	0	0	44	28	519	307	3	35	
3	0	0	0	0	39	25	519	307	3	35	
4	0	0	0	0	41	28	519	307	3	35	
5	0	0	0	0	44	28	519	307	3	35	
6	0	0	0	0	41	28	519	307	3	35	
7	0	0	0	0	44	30	519	307	3	35	
8	0	0	0	0	41	27	519	307	3	35	
9	0	0	0	0	44	27	519	307	3	35	
10	0	0	0	0	44	28	519	307	3	35	
11	0	0	0	0	44	27	519	307	3	35	
12	0	0	0	0	44	27	519	307	3	35	
13	0	0	0	0	41	27	519	307	3	35	
14	0	0	0	0	41	28	519	307	3	35	
15	0	0	0	0	44	24	519	307	3	35	
0	0	0	0	0	44	28	519	307	3	35	
1	0	0	0	0	41	25	519	307	3	35	
2	0	0	0	0	44	28	519	307	3	35	
3	0	0	0	0	44	24	519	307	3	35	
4	0	0	0	0	44	28	519	307	3	35	
5	0	0	0	0	44	25	519	305	3	35	
6	0	0	0	0	44	25	519	305	3	35	
7	0	0	0	0	44	25	519	305	3	35	
8	0	0	0	0	44	28	518	305	3	35	
9	0	0	0	0	41	25	518	305	3	35	
10	0	0	0	0	41	24	518	305	3	35	
11	0	0	0	0	44	31	518	305	3	35	
12	0	0	0	0	44	25	518	304	3	35	
13	0	0	0	0	44	28	518	304	3	35	
14	0	0	0	0	44	28	518	304	3	35	
15	0	0	0	0	44	25	518	305	3	35	
0	0	0	0	0	44	31	515	305	3	35	
1	0	0	0	0	44	25	518	305	3	35	
2	0	0	0	0	44	28	518	305	3	35	
3	0	0	0	0	41	28	518	307	3	35	
4	0	0	0	0	41	28	518	307	3	35	
5	0	0	0	0	44	25	518	307	3	35	
6	0	0	0	0	39	24	515	307	3	35	
7	0	0	0	0	44	28	515	307	3	35	
8	0	0	0	0	44	31	515	307	3	35	
9	0	0	0	0	44	25	515	307	3	35	
10	0	0	0	0	44	25	515	307	3	35	
11	0	0	0	0	44	25	515	307	3	35	
12	0	0	0	0	44	25	515	307	3	35	
13	0	0	0	0	44	28	515	307	3	35	
14	0	0	0	0	41	28	515	307	3	35	
15	0	0	0	0	41	24	515	307	3	35	
0	0	0	0	0	44	31	515	307	3	35	
1	0	0	0	0	44	28	515	307	3	35	
2	0	0	0	0	44	30	515	307	3	35	
3	0	0	0	0	44	30	515	307	3	35	
4	0	0	0	0	44	27	516	307	3	35	
5	0	0	0	0	44	27	518	307	3	35	
6	0	0	0	0	44	25	518	307	3	35	
7	0	0	0	0	44	30	518	307	3	35	
8	0	0	0	0	44	28	518	307	3	35	
9	0	0	0	0	41	25	518	307	3	35	
10	0	0	0	0	44	25	519	307	3	35	
11	0	0	0	0	41	24	518	307	3	35	
12	0	0	0	0	44	31	518	307	3	35	
13	0	0	0	0	44	25	518	307	3	35	
14	0	0	0	0	44	30	518	307	3	35	
15	0	0	0	0	44	25	516	307	3	35	
0	0	0	0	0	44	30	515	307	3	35	
1	0	0	0	0	44	30	515	307	3	35	
2	0	0	0	0	44	28	515	305	3	35	
3	0	0	0	0	39	25	515	305	3	35	
4	0	0	0	0	44	30	515	305	3	35	
5	0	0	0	0	44	28	513	305	3	35	
6	0	0	0	0	41	28	513	305	3	35	
7	0	0	0	0	44	25	513	305	3	35	
8	0	0	0	0	44	25	513	305	3	35	
9	0	0	0	0	44	25	512	305	3	35	
10	0	0	0	0	44	30	512	305	3	35	
11	0	0	0	0	44	25	512	305	3	35	
12	0	0	0	0	43	25	512	305	3	35	
13	0	0	0	0	44	25	512	305	3	35	
14	0	0	0	0	41	31	511	305	3	35	
15	0	0	0	0	41	25	511	305	3	35	
0	0	0	0	0	41	25	511	305	3	35	
1	0	0	0	0	41	28	511	305	3	35	
2	0	0	0	0	44	28	511	305	3	35	
3	0	0	0	0	44	25	510	304	3	35	
4	0	0	0	0	44	25	510	304	3	35	
5	0	0	0	0	44	25	510	304	3	35	
6	0	0	0	0	44	25	510	304	3	35	
7	0	0	0	0	44	25	510	304	3	35	
8	0	0	0	0	44	28	510	304	3	35	
9	0	0	0	0	43	25	510	304	3	35	
10	0	0	0	0	41	30	510	304	3	35	
11	0	0	0	0	39	24	510	304	3	35	
12	0	0	0	0	44	25	508	304	3	35	
13	0	0	0	0	44	28	508	304	3	35	
14	0	0	0	0	41	25	508	304	3	35	
15	0	0	0	0	44	28	508	304	3	35	
0	0	0	0	0	41	25	508	304	3	35	
1	0	0	0	0	44	25	508	304	3	35	
2	0	0	0	0	41	27	505	305	3	35	
3	0	0	0	0	44	31	505	305	3	35	
4	0	0	0	0	44	28	505	305	3	35	
5	0	0	0	0	44	31	504	305	3	35	
6	0	0	0	0	39	25	504	305	3	35	
7	0	0	0	0	44	25	504	305	3	35	
8	0	0	0	0	44	25	504	305	3	35	
9	0	0	0	0	44	25	504	305	3	35	
10	0	0	0	0	44	25	504	305	3	35	
11	0	0	0	0	44	25	504	307	3	35	
12	0	0	0	0	44	25	504	307	3	35	
13	0	0	0	0	41	25	504	307	3	35	
14	0	0	0	0	41	28	504	305	3	35	
15	0	0	0	0	44	30	504	305	3	35	
0	0	0	0	0	41	28	504	305	3	35	
1	0	0	0	0	39	25	504	305	3	35	
2	0	0	0	0	44	30	504	305	3	35	
3	0	0	0	0	44	25	504	305	3	35	
4	0	0	0	0	44	25	504	305	3	35	
5	0	0	0	0	44	25	504	305	3	35	
6	0	0	0	0	44	25	502	305	3	35	
7	0	0	0	0	44	24	499	305	3	35	
8	0	0	0	0	44	30	499	305	3	35	
9	0	0	0	0	44	25	497	305	3	35	
10	0	0	0	0	43	24	497	305	3	35	
11	0	0	0	0	41	28	496	305	3	35	
12	0	0	0	0	44	25	496	305	3	35	
13	0	0	0	0	44	31	496	305	3	35	
14	0	0	0	0	44	28	496	305	3	35	
15	0	0	0	0	44	25	496	305	3	35	
0	0	0	0	0	44	28	496	305	3	35	
1	0	0	0	0	44	25	496	305	3	35	
2	0	0	0	0	44	30	496	305	3	35	
3	0	0	0	0	39	25	497	305	3	35	
4	0	0	0	0	44	25	499	305	3	35	
5	0	0	0	0	44	30	499	307	3	35	
6	0	0	0	0	44	30	502	307	3	35	
7	0	0	0	0	44	25	504	307	3	35	
8	0	0	0	0	44	25	504	307	3	35	
9	0	0	0	0	44	30	505	307	3	35	
10	0	0	0	0	44	30	508	307	3	35	
11	0	0	0	0	43	25	510	307	3	35	
12	0	0	0	0	44	25	511	307	3	35	
13	0	0	0	0	44	25	512	305	3	35	
14	0	0	0	0	41	28	513	307	3	35	
15	0	0	0	0	44	24	515	307	3	35	
0	0	0	0	0	41	25	518	307	3	35	
1	0	0	0	0	39	25	519	307	3	35	
2	0	0	0	0	44	30	519	307	3	35	
3	0	0	0	0	41	27	521	307	3	35	
4	0	0	0	0	44	30	524	307	3	35	
5	0	0	0	0	44	27	524	307	3	35	
6	0	0	0	0	44	30	526	307	3	35	
7	0	0	0	0	44	27	526	307	3	35	
8	0	0	0	0	44	31	526	307	3	35	
9	0	0	0	0	41	25	527	307	3	35	
10	0	0	0	0	44	28	527	307	3	35	
11	0	0	0	0	41	24	527	305	3	35	
12	0	0	0	0	44	25	526	305	3	35	
13	0	0	0	0	44	25	526	305	3	35	
14	0	0	0	0	43	25	526	305	3	35	
15	0	0	0	0	41	25	526	305	3	35	
0	0	0	0	0	44	25	524	305	3	35	
1	0	0	0	0	44	30	524	305	3	35	
2	0	0	0	0	44	30	524	305	3	35	
3	0	0	0	0	39	30	524	305	3	35	
4	0	0	0	0	44	25	524	305	3	35	
5	0	0	0	0	44	25	524	305	3	35	
6	0	0	0	0	39	25	524	305	3	35	
7	0	0	0	0	44	28	524	305	3	35	
8	0	0	0	0	44	30	524	305	3	35	
9	0	0	0	0	44	30	524	307	3	35	
10	0	0	0	0	44	25	526	307	3	35	
11	0	0	0	0	44	25	526	307	3	35	
12	0	0	0	0	44	30	526	307	3	35	
13	0	0	0	0	44	28	526	307	3	35	
14	0	0	0	0	41	28	527	307	3	35	
15	0	0	0	0	41	24	527	307	3	35	
0	0	0	0	0	41	30	527	307	3	35	
1	0	0	0	0	41	24	527	307	3	35	
2	0	0	0	0	44	28	527	307	3	35	
3	0	0	0	0	44	28	526	307	3	35	
4	0	0	0	0	44	28	526	307	3	35	
5	0	0	0	0	44	28	526	307	3	35	
6	0	0	0	0	44	28	526	307	3	35	
7	0	0	0	0	44	28	526	307	3	35	
8	0	0	0	0	44	31	526	307	3	35	
9	0	0	0	0	44	28	526	307	3	35	
10	0	0	0	0	44	25	526	307	3	35	
11	0	0	0	0	41	28	526	307	3	35	
12	0	0	0	0	41	25	526	305	3	35	
13	0	0	0	0	44	25	526	305	3	35	
14	0	0	0	0	44	25	526	305	3	35	
15	0	0	0	0	44	25	526	305	3	35	
0	0	0	0	0	43	25	527	305	3	35	
1	0	0	0	0	44	25	527	305	3	35	
2	0	0	0	0	44	28	527	305	3	35	
3	0	0	0	0	41	28	527	305	3	35	
4	0	0	0	0	41	28	527	305	3	35	
5	0	0	0	0	44	30	526	305	3	35	
6	0	0	0	0	44	30	526	305	3	35	
7	0	0	0	0	44	27	526	305	3	35	
8	0	0	0	0	44	25	526	305	3	35	
9	0	0	0	0	44	30	526	305	3	35	
10	0	0	0	0	44	25	527	307	3	35	
11	0	0	0	0	44	25	527	307	3	35	
12	0	0	0	0	44	25	527	307	3	35	
13	0	0	0	0	44	27	527	307	3	35	
14	0	0	0	0	39	28	527	307	3	35	
15	0	0	0	0	44	24	529	307	3	35	
0	0	0	0	0	41	28	531	307	3	35	
1	0	0	0	0	41	24	534	307	3	35	
2	0	0	0	0	44	31	536	307	3	35	
3	0	0	0	0	44	28	537	307	3	35	
4	0	0	0	0	44	28	540	307	3	35	
5	0	0	0	0	44	28	542	307	3	35	
6	0	0	0	0	44	28	543	307	3	35	
7	0	0	0	0	44	31	543	307	3	35	
8	0	0	0	0	44	31	543	307	3	35	
9	0	0	0	0	41	25	543	307	3	35	
10	0	0	0	0	41	30	543	305	3	35	
11	0	0	0	0	41	28	540	305	3	35	
12	0	0	0	0	44	27	536	305	3	35	
13	0	0	0	0	43	25	531	305	3	35	
14	0	0	0	0	44	30	527	305	3	35	
15	0	0	0	0	44	25	519	305	3	35	
0	0	0	0	0	44	28	510	305	3	35	
1	0	0	0	0	44	25	499	304	3	35	
2	0	0	0	0	44	25	487	305	3	35	
3	0	0	0	0	44	33	472	305	3	35	
4	0	0	0	0	44	25	455	304	3	35	
5	0	0	0	0	41	28	440	304	3	35	
6	0	0	0	0	44	28	423	304	3	35	
7	0	0	0	0	44	28	403	304	3	35	
8	0	0	0	0	41	24	384	304	3	35	
9	0	0	0	0	41	24	359	304	3	35	
10	0	0	0	0	41	24	339	304	3	35	
11	0	0	0	0	41	24	316	304	3	35	
12	0	0	0	0	44	31	295	304	3	35	
13	0	0	0	0	41	24	275	304	3	35	
14	0	0	0	0	41	28	255	304	3	35	
15	0	0	0	0	41	24	240	304	3	35	
0	0	0	0	0	44	30	224	304	3	35	
1	0	0	0	0	44	25	211	304	3	35	
2	0	0	0	0	44	24	199	304	3	35	
3	0	0	0	0	41	24	192	304	3	35	
4	0	0	0	0	41	24	188	304	3	35	
5	0	0	0	0	44	30	188	304	3	35	
6	0	0	0	0	41	24	190	304	3	35	
7	0	0	0	0	44	28	195	304	3	35	
8	0	0	0	0	41	25	204	304	3	35	
9	0	0	0	0	43	25	216	305	3	35	
10	0	0	0	0	41	24	231	304	3	35	
11	0	0	0	0	39	24	252	305	3	35	
12	0	0	0	0	41	24	271	304	3	35	
13	0	0	0	0	41	24	295	305	3	35	
14	0	0	0	0	41	24	319	305	3	35	
15	0	0	0	0	41	25	348	305	3	35	
0	0	0	0	0	41	25	376	305	3	35	
1	0	0	0	0	41	25	399	305	3	35	
2	0	0	0	0	44	25	428	305	3	35	
3	0	0	0	0	43	24	451	305	3	35	
4	0	0	0	0	44	28	473	305	3	35	
5	0	0	0	0	41	24	496	305	3	35	
6	0	0	0	0	44	28	512	305	3	35	
7	0	0	0	0	44	30	527	305	3	35	
8	0	0	0	0	44	30	537	305	3	35	
9	0	0	0	0	44	31	543	305	3	35	
10	0	0	0	0	44	30	551	305	3	35	
11	0	0	0	0	41	28	551	305	3	35	
12	0	0	0	0	44	31	551	305	3	35	
13	0	0	0	0	44	28	550	305	3	35	
14	0	0	0	0	44	31	543	305	3	35	
15	0	0	0	0	44	28	540	307	3	35	
0	0	0	0	0	44	30	531	307	3	35	
1	0	0	0	0	41	25	526	307	3	35	
2	0	0	0	0	44	28	519	307	3	35	
3	0	0	0	0	44	27	512	307	3	35	
4	0	0	0	0	41	27	508	307	3	35	
5	0	0	0	0	44	31	504	307	3	35	
6	0	0	0	0	44	25	499	307	3	35	
7	0	0	0	0	44	25	496	307	3	35	
8	0	0	0	0	44	28	496	307	3	35	
9	0	0	0	0	44	28	496	308	3	35	
10	0	0	0	0	44	24	496	308	3	35	
11	0	0	0	0	41	25	496	310	3	35	
12	0	0	0	0	44	30	497	310	3	35	
13	0	0	0	0	44	30	499	310	3	35	
14	0	0	0	0	44	30	504	310	3	35	
15	0	0	0	0	44	25	504	307	3	35	
0	0	0	0	0	44	25	508	307	3	35	
1	0	0	0	0	44	30	510	307	3	35	
2	0	0	0	0	44	28	512	307	3	35	
3	0	0	0	0	39	25	513	307	3	35	
4	0	0	0	0	39	28	515	307	3	35	
5	0	0	0	0	44	28	518	307	3	35	
6	0	0	0	0	41	24	519	307	3	35	
7	0	0	0	0	44	28	519	307	3	35	
8	0	0	0	0	44	30	519	307	3	35	
9	0	0	0	0	41	25	519	307	3	35	
10	0	0	0	0	44	30	519	307	3	35	
11	0	0	0	0	44	30	519	307	3	35	
12	0	0	0	0	43	25	519	307	3	35	
13	0	0	0	0	44	31	519	305	3	35	
14	0	0	0	0	41	28	519	305	3	35	
15	0	0	0	0	44	28	519	305	3	35	
0	0	0	0	0	41	28	519	305	3	35	
1	0	0	0	0	44	31	519	305	3	35	
2	0	0	0	0	44	30	519	305	3	35	
3	0	0	0	0	44	30	519	305	3	35	
4	0	0	0	0	44	30	519	305	3	35	
5	0	0	0	0	44	25	519	305	3	35	
6	0	0	0	0	44	31	519	305	3	35	
7	0	0	0	0	44	25	519	305	3	35	
8	0	0	0	0	43	28	519	305	3	35	
9	0	0	0	0	41	25	519	305	3	35	
10	0	0	0	0	44	25	519	305	3	35	
11	0	0	0	0	39	25	519	307	3	35	
12	0	0	0	0	44	25	519	307	3	35	
13	0	0	0	0	43	25	519	305	3	35	
14	0	0	0	0	44	30	519	305	3	35	
15	0	0	0	0	44	24	519	307	3	35	
0	0	0	0	0	43	25	519	305	3	35	
1	0	0	0	0	44	25	519	305	3	35	
2	0	0	0	0	44	28	519	305	3	35	
3	0	0	0	0	41	28	519	305	3	35	
4	0	0	0	0	44	30	518	305	3	35	
5	0	0	0	0	44	30	518	305	3	35	
6	0	0	0	0	41	28	518	305	3	35	
7	0	0	0	0	44	25	518	305	3	35	
8	0	0	0	0	44	30	518	304	3	35	
9	0	0	0	0	44	30	515	304	3	35	
10	0	0	0	0	41	25	515	304	3	35	
11	0	0	0	0	43	25	515	304	3	35	
12	0	0	0	0	41	25	515	304	3	35	
13	0	0	0	0	44	31	515	304	3	35	
14	0	0	0	0	44	31	515	304	3	35	
15	0	0	0	0	44	28	515	304	3	35	
0	0	0	0	0	41	25	515	304	3	35	
1	0	0	0	0	41	25	513	304	3	35	
2	0	0	0	0	44	28	513	304	3	35	
3	0	0	0	0	41	25	512	304	3	35	
4	0	0	0	0	43	25	512	304	3	35	
5	0	0	0	0	43	25	511	304	3	35	
6	0	0	0	0	43	25	511	304	3	35	
7	0	0	0	0	44	30	511	304	3	35	
8	0	0	0	0	44	31	510	304	3	35	
9	0	0	0	0	41	25	510	305	3	35	
10	0	0	0	0	44	28	508	305	3	35	
11	0	0	0	0	44	31	508	305	3	35	
12	0	0	0	0	44	25	508	307	3	35	
13	0	0	0	0	44	25	508	307	3	35	
14	0	0	0	0	44	30	508	307	3	35	
15	0	0	0	0	44	25	508	307	3	35	
0	0	0	0	0	44	25	508	307	3	35	
1	0	0	0	0	44	28	508	307	3	35	
2	0	0	0	0	44	28	508	307	3	35	
3	0	0	0	0	41	28	508	307	3	35	
4	0	0	0	0	44	28	508	307	3	35	
5	0	0	0	0	44	30	508	307	3	35	
6	0	0	0	0	39	28	505	307	3	35	
7	0	0	0	0	41	25	505	307	3	35	
8	0	0	0	0	44	25	504	307	3	35	
9	0	0	0	0	44	25	504	307	3	35	
10	0	0	0	0	41	25	504	307	3	35	
11	0	0	0	0	44	25	504	307	3	35	
12	0	0	0	0	41	25	504	307	3	35	
13	0	0	0	0	44	25	502	307	3	35	
14	0	0	0	0	39	28	499	307	3	35	
15	0	0	0	0	44	24	499	307	3	35	
0	0	0	0	0	41	24	499	307	3	35	
1	0	0	0	0	41	24	497	307	3	35	
2	0	0	0	0	44	28	497	307	3	35	
3	0	0	0	0	44	30	496	307	3	35	
4	0	0	0	0	44	25	496	307	3	35	
5	0	0	0	0	41	25	496	307	3	35	
6	0	0	0	0	44	25	496	305	3	35	
7	0	0	0	0	44	31	496	305	3	35	
8	0	0	0	0	41	28	496	305	3	35	
9	0	0	0	0	41	25	494	305	3	35	
10	0	0	0	0	43	24	494	305	3	35	
11	0	0	0	0	39	28	492	305	3	35	
12	0	0	0	0	44	28	492	305	3	35	
13	0	0	0	0	44	28	492	305	3	35	
14	0	0	0	0	41	25	489	305	3	35	
15	0	0	0	0	43	25	487	305	3	35	
0	0	0	0	0	44	28	487	305	3	35	
1	0	0	0	0	44	25	487	305	3	35	
2	0	0	0	0	44	31	487	305	3	35	
3	0	0	0	0	41	30	487	305	3	35	
4	0	0	0	0	41	28	487	305	3	35	
5	0	0	0	0	44	31	486	305	3	35	
6	0	0	0	0	39	28	486	305	3	35	
7	0	0	0	0	44	25	483	305	3	35	
8	0	0	0	0	44	28	483	305	3	35	
9	0	0	0	0	44	28	483	305	3	35	
10	0	0	0	0	41	25	483	305	3	35	
11	0	0	0	0	43	25	481	305	3	35	
12	0	0	0	0	44	28	481	305	3	35	
13	0	0	0	0	44	28	480	305	3	35	
14	0	0	0	0	41	28	480	305	3	35	
15	0	0	0	0	44	28	480	304	3	35	
0	0	0	0	0	41	25	480	304	3	35	
1	0	0	0	0	41	25	478	305	3	35	
2	0	0	0	0	44	27	476	305	3	35	
3	0	0	0	0	44	25	476	305	3	35	
4	0	0	0	0	44	25	473	304	3	35	
5	0	0	0	0	44	25	472	304	3	35	
6	0	0	0	0	44	25	472	304	3	35	
7	0	0	0	0	44	28	472	304	3	35	
8	0	0	0	0	44	31	472	304	3	35	
9	0	0	0	0	41	25	472	304	3	35	
10	0	0	0	0	41	28	472	304	3	35	
11	0	0	0	0	44	31	470	305	3	35	
12	0	0	0	0	43	25	470	305	3	35	
13	0	0	0	0	41	25	467	305	3	35	
14	0	0	0	0	41	25	467	305	3	35	
15	0	0	0	0	41	25	467	305	3	35	
0	0	0	0	0	41	25	465	305	3	35	
1	0	0	0	0	43	25	463	305	3	35	
2	0	0	0	0	44	25	463	305	3	35	
3	0	0	0	0	39	30	463	305	3	35	
4	0	0	0	0	41	28	463	305	3	35	
5	0	0	0	0	44	25	462	305	3	35	
6	0	0	0	0	39	25	460	305	3	35	
7	0	0	0	0	44	31	460	305	3	35	
8	0	0	0	0	44	28	457	305	3	35	
9	0	0	0	0	44	25	455	305	3	35	
10	0	0	0	0	44	28	455	305	3	35	
11	0	0	0	0	44	25	455	305	3	35	
12	0	0	0	0	44	25	455	305	3	35	
13	0	0	0	0	44	28	455	305	3	35	
14	0	0	0	0	41	28	454	305	3	35	
15	0	0	0	0	44	25	454	305	3	35	
0	0	0	0	0	44	30	451	307	3	35	
1	0	0	0	0	41	28	451	305	3	35	
2	0	0	0	0	44	27	451	305	3	35	
3	0	0	0	0	44	25	451	307	3	35	
4	0	0	0	0	44	28	451	307	3	35	
5	0	0	0	0	43	25	451	305	3	35	
6	0	0	0	0	43	25	451	305	3	35	
7	0	0	0	0	44	25	451	305	3	35	
8	0	0	0	0	41	28	451	305	3	35	
9	0	0	0	0	39	25	449	305	3	35	
10	0	0	0	0	44	24	449	307	3	35	
11	0	0	0	0	44	30	449	305	3	35	
12	0	0	0	0	44	25	449	305	3	35	
13	0	0	0	0	44	28	449	305	3	35	
14	0	0	0	0	44	25	451	305	3	35	
15	0	0	0	0	44	28	451	307	3	35	
0	0	0	0	0	44	25	451	307	3	35	
1	0	0	0	0	44	25	451	307	3	35	
2	0	0	0	0	44	25	452	307	3	35	
3	0	0	0	0	41	31	454	307	3	35	
4	0	0	0	0	44	25	455	307	3	35	
5	0	0	0	0	41	25	455	307	3	35	
6	0	0	0	0	41	24	455	307	3	35	
7	0	0	0	0	44	25	455	305	3	35	
8	0	0	0	0	44	28	460	305	3	35	
9	0	0	0	0	43	25	460	305	3	35	
10	0	0	0	0	43	25	462	305	3	35	
11	0	0	0	0	41	25	463	305	3	35	
12	0	0	0	0	43	25	463	307	3	35	
13	0	0	0	0	44	28	465	307	3	35	
14	0	0	0	0	41	28	467	307	3	35	
15	0	0	0	0	43	25	470	307	3	35	
0	0	0	0	0	41	28	472	307	3	35	
1	0	0	0	0	44	30	472	307	3	35	
2	0	0	0	0	44	30	476	307	3	35	
3	0	0	0	0	44	30	478	307	3	35	
4	0	0	0	0	44	31	480	307	3	35	
5	0	0	0	0	44	25	481	307	3	35	
6	0	0	0	0	41	25	483	307	3	35	
7	0	0	0	0	44	25	486	307	3	35	
8	0	0	0	0	41	28	487	307	3	35	
9	0	0	0	0	39	25	489	307	3	35	
10	0	0	0	0	41	28	492	307	3	35	
11	0	0	0	0	39	28	496	307	3	35	
12	0	0	0	0	44	25	496	307	3	35	
13	0	0	0	0	43	25	497	307	3	35	
14	0	0	0	0	44	30	499	307	3	35	
15	0	0	0	0	44	25	502	307	3	35	
0	0	0	0	0	44	25	504	307	3	35	
1	0	0	0	0	44	31	504	307	3	35	
2	0	0	0	0	44	28	504	307	3	35	
3	0	0	0	0	39	25	508	307	3	35	
4	0	0	0	0	41	28	508	307	3	35	
5	0	0	0	0	44	25	510	307	3	35	
6	0	0	0	0	41	25	511	307	3	35	
7	0	0	0	0	44	30	512	307	3	35	
8	0	0	0	0	44	25	513	307	3	35	
9	0	0	0	0	44	25	515	307	3	35	
10	0	0	0	0	44	25	518	307	3	35	
11	0	0	0	0	44	25	519	307	3	35	
12	0	0	0	0	44	25	519	305	3	35	
13	0	0	0	0	44	31	519	305	3	35	
14	0	0	0	0	39	28	524	305	3	35	
15	0	0	0	0	44	24	524	305	3	35	
0	0	0	0	0	41	28	526	305	3	35	
1	0	0	0	0	41	24	527	305	3	35	
2	0	0	0	0	44	28	527	305	3	35	
3	0	0	0	0	43	25	527	304	3	35	
4	0	0	0	0	44	25	529	305	3	35	
5	0	0	0	0	44	25	531	304	3	35	
6	0	0	0	0	44	30	531	304	3	35	
7	0	0	0	0	44	25	531	305	3	35	
8	0	0	0	0	43	28	534	304	3	35	
9	0	0	0	0	44	31	536	305	3	35	
10	0	0	0	0	41	30	536	305	3	35	
11	0	0	0	0	41	25	536	304	3	35	
12	0	0	0	0	44	27	536	305	3	35	
13	0	0	0	0	44	25	536	305	3	35	
14	0	0	0	0	44	25	536	305	3	35	
15	0	0	0	0	41	25	537	305	3	35	
0	0	0	0	0	44	25	537	305	3	35	
1	0	0	0	0	44	30	540	305	3	35	
2	0	0	0	0	44	30	540	305	3	35	
3	0	0	0	0	39	30	540	305	3	35	
4	0	0	0	0	44	31	540	305	3	35	
5	0	0	0	0	44	25	540	305	3	35	
6	0	0	0	0	44	31	540	307	3	35	
7	0	0	0	0	44	24	540	307	3	35	
8	0	0	0	0	44	28	540	305	3	35	
9	0	0	0	0	44	30	540	305	3	35	
10	0	0	0	0	43	27	540	305	3	35	
11	0	0	0	0	44	25	540	305	3	35	
12	0	0	0	0	44	25	540	305	3	35	
13	0	0	0	0	44	28	540	305	3	35	
14	0	0	0	0	41	28	540	305	3	35	
15	0	0	0	0	44	24	540	305	3	35	
0	0	0	0	0	44	28	540	305	3	35	
1	0	0	0	0	39	25	540	305	3	35	
2	0	0	0	0	41	28	540	305	3	35	
3	0	0	0	0	44	28	540	305	3	35	
4	0	0	0	0	44	28	540	305	3	35	
5	0	0	0	0	41	28	540	305	3	35	
6	0	0	0	0	44	28	540	305	3	35	
7	0	0	0	0	41	28	540	305	3	35	
8	0	0	0	0	43	28	540	305	3	35	
9	0	0	0	0	39	25	540	305	3	35	
10	0	0	0	0	41	25	540	305	3	35	
11	0	0	0	0	44	30	540	305	3	35	
12	0	0	0	0	44	28	540	305	3	35	
13	0	0	0	0	44	25	540	307	3	35	
14	0	0	0	0	44	30	540	307	3	35	
15	0	0	0	0	44	25	540	307	3	35	
0	0	0	0	0	41	25	537	307	3	35	
1	0	0	0	0	44	28	537	307	3	35	
2	0	0	0	0	44	31	537	307	3	35	
3	0	0	0	0	44	25	537	307	3	35	
4	0	0	0	0	44	28	536	307	3	35	
5	0	0	0	0	44	28	536	307	3	35	
6	0	0	0	0	41	30	536	307	3	35	
7	0	0	0	0	44	28	536	307	3	35	
8	0	0	0	0	44	30	536	307	3	35	
9	0	0	0	0	44	28	536	307	3	35	
10	0	0	0	0	44	28	536	307	3	35	
11	0	0	0	0	44	30	536	307	3	35	
12	0	0	0	0	44	28	536	307	3	35	
13	0	0	0	0	44	31	536	307	3	35	
14	0	0	0	0	41	28	536	307	3	35	
15	0	0	0	0	44	24	536	307	3	35	
0	0	0	0	0	44	31	536	307	3	35	
1	0	0	0	0	41	25	534	307	3	35	
2	0	0	0	0	44	28	534	307	3	35	
3	0	0	0	0	44	28	531	307	3	35	
4	0	0	0	0	44	30	531	307	3	35	
5	0	0	0	0	44	28	531	307	3	35	
6	0	0	0	0	44	28	531	307	3	35	
7	0	0	0	0	44	28	531	307	3	35	
8	0	0	0	0	44	31	531	307	3	35	
9	0	0	0	0	44	31	531	307	3	35	
10	0	0	0	0	44	25	531	305	3	35	
11	0	0	0	0	41	28	531	305	3	35	
12	0	0	0	0	44	30	531	305	3	35	
13	0	0	0	0	44	25	531	305	3	35	
14	0	0	0	0	44	25	531	305	3	35	
15	0	0	0	0	44	25	531	305	3	35	
0	0	0	0	0	44	25	531	305	3	35	
1	0	0	0	0	44	25	531	305	3	35	
2	0	0	0	0	44	30	531	304	3	35	
3	0	0	0	0	41	28	531	304	3	35	
4	0	0	0	0	41	28	531	304	3	35	
5	0	0	0	0	44	25	531	304	3	35	
6	0	0	0	0	39	28	531	304	3	35	
7	0	0	0	0	44	25	531	304	3	35	
8	0	0	0	0	44	25	529	304	3	35	
9	0	0	0	0	44	25	529	304	3	35	
10	0	0	0	0	44	25	529	304	3	35	
11	0	0	0	0	44	25	529	304	3	35	
12	0	0	0	0	44	25	529	304	3	35	
13	0	0	0	0	44	25	529	304	3	35	
14	0	0	0	0	43	31	529	305	3	35	
15	0	0	0	0	44	31	529	305	3	35	
0	0	0	0	0	41	24	529	305	3	35	
1	0	0	0	0	41	28	529	305	3	35	
2	0	0	0	0	44	28	529	305	3	35	
3	0	0	0	0	41	25	529	305	3	35	
4	0	0	0	0	43	25	529	305	3	35	
5	0	0	0	0	44	30	527	305	3	35	
6	0	0	0	0	44	30	527	305	3	35	
7	0	0	0	0	44	25	527	307	3	35	
8	0	0	0	0	44	28	527	307	3	35	
9	0	0	0	0	43	25	527	307	3	35	
10	0	0	0	0	44	35	527	307	3	35	
11	0	0	0	0	41	24	527	307	3	35	
12	0	0	0	0	44	27	527	307	3	35	
13	0	0	0	0	44	25	527	307	3	35	
14	0	0	0	0	44	30	526	307	3	35	
15	0	0	0	0	44	25	526	307	3	35	
0	0	0	0	0	44	30	526	307	3	35	
1	0	0	0	0	44	28	526	307	3	35	
2	0	0	0	0	44	30	526	307	3	35	
3	0	0	0	0	41	28	526	307	3	35	
4	0	0	0	0	44	31	526	307	3	35	
5	0	0	0	0	44	25	527	307	3	35	
6	0	0	0	0	41	28	527	307	3	35	
7	0	0	0	0	44	31	527	305	3	35	
8	0	0	0	0	44	25	527	305	3	35	
9	0	0	0	0	44	30	527	305	3	35	
10	0	0	0	0	41	25	527	305	3	35	
11	0	0	0	0	44	25	527	305	3	35	
12	0	0	0	0	44	25	526	305	3	35	
13	0	0	0	0	41	25	526	305	3	35	
14	0	0	0	0	41	28	526	305	3	35	
15	0	0	0	0	44	25	524	305	3	35	
0	0	0	0	0	41	24	524	307	3	35	
1	0	0	0	0	44	33	524	307	3	35	
2	0	0	0	0	44	28	524	307	3	35	
3	0	0	0	0	44	30	524	307	3	35	
4	0	0	0	0	44	27	524	307	3	35	
5	0	0	0	0	44	30	524	307	3	35	
6	0	0	0	0	44	28	521	307	3	35	
7	0	0	0	0	44	28	521	307	3	35	
8	0	0	0	0	41	28	521	307	3	35	
9	0	0	0	0	41	25	521	307	3	35	
10	0	0	0	0	44	28	521	307	3	35	
11	0	0	0	0	39	24	521	307	3	35	
12	0	0	0	0	44	28	521	308	3	35	
13	0	0	0	0	44	30	521	308	3	35	
14	0	0	0	0	44	25	521	307	3	35	
15	0	0	0	0	44	25	521	307	3	35	
0	0	0	0	0	44	25	521	307	3	35	
1	0	0	0	0	44	31	521	307	3	35	
2	0	0	0	0	44	30	521	307	3	35	
3	0	0	0	0	39	25	519	307	3	35	
4	0	0	0	0	41	28	519	307	3	35	
5	0	0	0	0	44	24	519	307	3	35	
6	0	0	0	0	41	24	519	307	3	35	
7	0	0	0	0	44	30	519	307	3	35	
8	0	0	0	0	44	25	519	307	3	35	
9	0	0	0	0	44	25	519	307	3	35	
10	0	0	0	0	41	25	519	307	3	35	
11	0	0	0	0	44	25	519	307	3	35	
12	0	0	0	0	41	27	521	310	3	35	
13	0	0	0	0	44	28	521	312	3	35	
14	0	0	0	0	39	28	521	312	3	35	
15	0	0	0	0	44	24	521	312	3	35	
0	0	0	0	0	44	31	521	312	3	35	
1	0	0	0	0	41	25	524	312	3	35	
2	0	0	0	0	44	28	524	312	3	35	
3	0	0	0	0	44	31	524	312	3	35	
4	0	0	0	0	44	28	524	310	3	35	
5	0	0	0	0	44	27	524	307	3	35	
6	0	0	0	0	44	31	524	307	3	35	
7	0	0	0	0	43	25	524	305	3	35	
8	0	0	0	0	41	28	524	304	3	35	
9	0	0	0	0	41	25	524	304	3	35	
10	0	0	0	0	44	24	524	304	3	35	
11	0	0	0	0	41	28	524	304	3	35	
12	0	0	0	0	41	25	524	302	3	35	
13	0	0	0	0	41	25	524	302	3	35	
14	0	0	0	0	41	25	524	300	3	35	
15	0	0	0	0	41	25	524	300	3	35	
0	0	0	0	0	39	25	524	300	3	35	
1	0	0	0	0	41	25	524	300	3	35	
2	0	0	0	0	44	31	524	300	3	35	
3	0	0	0	0	39	28	524	300	3	35	
4	0	0	0	0	44	25	524	300	3	35	
5	0	0	0	0	41	24	524	302	3	35	
6	0	0	0	0	39	25	524	302	3	35	
7	0	0	0	0	44	28	524	302	3	35	
8	0	0	0	0	41	25	524	304	3	35	
9	0	0	0	0	41	25	524	304	3	35	
10	0	0	0	0	44	28	524	304	3	35	
11	0	0	0	0	43	25	524	304	3	35	
12	0	0	0	0	44	25	524	304	3	35	
13	0	0	0	0	41	25	524	304	3	35	
14	0	0	0	0	41	28	524	304	3	35	
15	0	0	0	0	44	24	524	305	3	35	
0	0	0	0	0	41	28	524	305	3	35	
1	0	0	0	0	44	30	524	305	3	35	
2	0	0	0	0	44	28	526	305	3	35	
3	0	0	0	0	44	30	526	305	3	35	
4	0	0	0	0	44	30	526	305	3	35	
5	0	0	0	0	44	30	526	305	3	35	
6	0	0	0	0	44	25	527	305	3	35	
7	0	0	0	0	44	25	527	305	3	35	
8	0	0	0	0	41	28	527	307	3	35	
9	0	0	0	0	41	25	527	307	3	35	
10	0	0	0	0	44	28	527	307	3	35	
11	0	0	0	0	39	24	527	307	3	35	
12	0	0	0	0	44	25	527	307	3	35	
13	0	0	0	0	44	30	526	305	3	35	
14	0	0	0	0	44	25	526	305	3	35	
15	0	0	0	0	44	30	526	305	3	35	
0	0	0	0	0	41	25	526	305	3	35	
1	0	0	0	0	44	30	524	305	3	35	
2	0	0	0	0	44	28	524	305	3	35	
3	0	0	0	0	44	31	524	305	3	35	
4	0	0	0	0	44	28	524	307	3	35	
5	0	0	0	0	41	24	524	307	3	35	
6	0	0	0	0	41	24	524	307	3	35	
7	0	0	0	0	44	28	524	307	3	35	
8	0	0	0	0	44	27	524	307	3	35	
9	0	0	0	0	44	25	524	307	3	35	
10	0	0	0	0	44	25	524	307	3	35	
11	0	0	0	0	44	25	526	305	3	35	
12	0	0	0	0	44	25	526	305	3	35	
13	0	0	0	0	44	25	526	305	3	35	
14	0	0	0	0	39	28	526	305	3	35	
15	0	0	0	0	43	24	526	305	3	35	
0	0	0	0	0	41	28	524	305	3	35	
1	0	0	0	0	41	24	524	305	3	35	
2	0	0	0	0	44	28	524	305	3	35	
3	0	0	0	0	44	27	524	307	3	35	
4	0	0	0	0	44	25	524	307	3	35	
5	0	0	0	0	44	30	524	307	3	35	
6	0	0	0	0	44	25	524	307	3	35	
7	0	0	0	0	44	25	524	307	3	35	
8	0	0	0	0	44	28	524	307	3	35	
9	0	0	0	0	44	25	524	307	3	35	
10	0	0	0	0	41	25	524	307	3	35	
11	0	0	0	0	41	24	524	307	3	35	
12	0	0	0	0	44	27	524	307	3	35	
13	0	0	0	0	44	25	524	307	3	35	
14	0	0	0	0	44	30	524	307	3	35	
15	0	0	0	0	44	25	524	307	3	35	
0	0	0	0	0	44	25	521	305	3	35	
1	0	0	0	0	44	25	519	305	3	35	
2	0	0	0	0	44	30	519	305	3	35	
3	0	0	0	0	39	28	519	304	3	35	
4	0	0	0	0	44	25	519	304	3	35	
5	0	0	0	0	41	28	519	304	3	35	
6	0	0	0	0	39	28	518	304	3	35	
7	0	0	0	0	41	25	515	304	3	35	
8	0	0	0	0	44	25	515	304	3	35	
9	0	0	0	0	44	25	515	304	3	35	
10	0	0	0	0	44	31	515	304	3	35	
11	0	0	0	0	44	28	515	304	3	35	
12	0	0	0	0	41	25	515	304	3	35	
13	0	0	0	0	44	25	518	304	3	35	
14	0	0	0	0	41	28	518	304	3	35	
15	0	0	0	0	44	28	519	304	3	35	
0	0	0	0	0	41	25	519	304	3	35	
1	0	0	0	0	44	31	519	304	3	35	
2	0	0	0	0	44	30	519	304	3	35	
3	0	0	0	0	41	25	519	304	3	35	
4	0	0	0	0	41	25	519	304	3	35	
5	0	0	0	0	41	25	519	304	3	35	
6	0	0	0	0	44	28	519	304	3	35	
7	0	0	0	0	44	28	518	304	3	35	
8	0	0	0	0	44	31	515	304	3	35	
9	0	0	0	0	41	25	515	304	3	35	
10	0	0	0	0	43	30	515	304	3	35	
11	0	0	0	0	39	24	513	304	3	35	
12	0	0	0	0	44	25	513	304	3	35	
13	0	0	0	0	44	25	512	305	3	35	
14	0	0	0	0	44	25	512	305	3	35	
15	0	0	0	0	44	25	512	305	3	35	
0	0	0	0	0	44	28	512	305	3	35	
1	0	0	0	0	44	25	512	305	3	35	
2	0	0	0	0	44	30	512	305	3	35	
3	0	0	0	0	39	25	512	307	3	35	
4	0	0	0	0	44	31	512	307	3	35	
5	0	0	0	0	44	24	512	307	3	35	
6	0	0	0	0	41	28	512	307	3	35	
7	0	0	0	0	44	30	512	307	3	35	
8	0	0	0	0	44	30	512	307	3	35	
9	0	0	0	0	44	30	511	307	3	35	
10	0	0	0	0	44	30	511	307	3	35	
11	0	0	0	0	44	25	511	307	3	35	
12	0	0	0	0	44	31	510	307	3	35	
13	0	0	0	0	44	25	510	307	3	35	
14	0	0	0	0	41	28	508	307	3	35	
15	0	0	0	0	44	27	508	307	3	35	
0	0	0	0	0	44	28	508	307	3	35	
1	0	0	0	0	41	28	505	307	3	35	
2	0	0	0	0	44	30	504	307	3	35	
3	0	0	0	0	44	30	504	307	3	35	
4	0	0	0	0	44	25	504	307	3	35	
5	0	0	0	0	44	31	504	305	3	35	
6	0	0	0	0	44	25	504	305	3	35	
7	0	0	0	0	44	25	504	305	3	35	
8	0	0	0	0	44	28	504	305	3	35	
9	0	0	0	0	41	25	504	305	3	35	
10	0	0	0	0	44	28	504	305	3	35	
11	0	0	0	0	39	28	504	305	3	35	
12	0	0	0	0	44	30	504	305	3	35	
13	0	0	0	0	44	28	504	305	3	35	
14	0	0	0	0	44	25	504	307	3	35	
15	0	0	0	0	44	25	504	307	3	35	
0	0	0	0	0	44	25	504	307	3	35	
1	0	0	0	0	44	30	504	307	3	35	
2	0	0	0	0	44	28	505	307	3	35	
3	0	0	0	0	39	28	508	307	3	35	
4	0	0	0	0	44	28	508	307	3	35	
5	0	0	0	0	44	28	510	307	3	35	
6	0	0	0	0	41	25	511	307	3	35	
7	0	0	0	0	44	28	512	307	3	35	
8	0	0	0	0	44	31	513	307	3	35	
9	0	0	0	0	44	25	515	307	3	35	
10	0	0	0	0	44	25	519	307	3	35	
11	0	0	0	0	44	25	519	307	3	35	
12	0	0	0	0	44	30	524	307	3	35	
13	0	0	0	0	44	25	524	307	3	35	
14	0	0	0	0	44	31	527	307	3	35	
15	0	0	0	0	44	25	527	307	3	35	
0	0	0	0	0	41	28	527	305	3	35	
1	0	0	0	0	39	28	529	305	3	35	
2	0	0	0	0	44	30	531	305	3	35	
3	0	0	0	0	44	30	531	305	3	35	
4	0	0	0	0	44	28	531	305	3	35	
5	0	0	0	0	44	25	529	305	3	35	
6	0	0	0	0	44	25	529	305	3	35	
7	0	0	0	0	44	25	527	305	3	35	
8	0	0	0	0	44	28	527	305	3	35	
9	0	0	0	0	44	25	527	305	3	35	
10	0	0	0	0	44	28	527	305	3	35	
11	0	0	0	0	41	25	527	305	3	35	
12	0	0	0	0	44	25	527	305	3	35	
13	0	0	0	0	44	25	527	305	3	35	
14	0	0	0	0	44	31	527	307	3	35	
15	0	0	0	0	44	25	527	305	3	35	
0	0	0	0	0	44	25	527	305	3	35	
1	0	0	0	0	44	31	527	305	3	35	
2	0	0	0	0	44	28	527	305	3	35	
3	0	0	0	0	44	25	527	305	3	35	
4	0	0	0	0	41	27	527	305	3	35	
5	0	0	0	0	43	30	527	307	3	35	
6	0	0	0	0	39	24	527	307	3	35	
7	0	0	0	0	44	28	527	307	3	35	
8	0	0	0	0	44	30	527	307	3	35	
9	0	0	0	0	44	30	527	307	3	35	
10	0	0	0	0	44	25	527	307	3	35	
11	0	0	0	0	44	25	527	307	3	35	
12	0	0	0	0	44	30	527	307	3	35	
13	0	0	0	0	41	28	527	307	3	35	
14	0	0	0	0	41	28	527	307	3	35	
15	0	0	0	0	41	24	527	307	3	35	
0	0	0	0	0	44	28	527	307	3	35	
1	0	0	0	0	44	31	527	307	3	35	
2	0	0	0	0	44	28	527	307	3	35	
3	0	0	0	0	44	28	527	307	3	35	
4	0	0	0	0	44	28	527	310	3	35	
5	0	0	0	0	44	30	527	307	3	35	
6	0	0	0	0	44	30	527	308	3	35	
7	0	0	0	0	44	28	527	308	3	35	
8	0	0	0	0	44	28	527	310	3	35	
9	0	0	0	0	44	25	527	307	3	35	
10	0	0	0	0	41	24	527	307	3	35	
11	0	0	0	0	44	31	527	307	3	35	
12	0	0	0	0	44	31	527	307	3	35	
13	0	0	0	0	44	25	527	307	3	35	
14	0	0	0	0	44	30	527	307	3	35	
15	0	0	0	0	44	25	527	307	3	35	
0	0	0	0	0	44	30	527	307	3	35	
1	0	0	0	0	44	28	527	307	3	35	
2	0	0	0	0	44	30	527	307	3	35	
3	0	0	0	0	39	25	527	307	3	35	
4	0	0	0	0	44	25	527	307	3	35	
5	0	0	0	0	44	25	527	307	3	35	
6	0	0	0	0	44	30	527	307	3	35	
7	0	0	0	0	44	28	527	305	3	35	
8	0	0	0	0	44	25	529	305	3	35	
9	0	0	0	0	44	25	529	305	3	35	
10	0	0	0	0	44	25	531	305	3	35	
11	0	0	0	0	44	30	531	305	3	35	
12	0	0	0	0	44	25	534	305	3	35	
13	0	0	0	0	44	25	536	305	3	35	
14	0	0	0	0	39	28	536	305	3	35	
15	0	0	0	0	41	24	537	305	3	35	
0	0	0	0	0	44	28	540	305	3	35	
1	0	0	0	0	41	25	542	305	3	35	
2	0	0	0	0	44	30	543	305	3	35	
3	0	0	0	0	44	30	543	305	3	35	
4	0	0	0	0	44	28	543	307	3	35	
5	0	0	0	0	44	31	543	307	3	35	
6	0	0	0	0	44	28	543	307	3	35	
7	0	0	0	0	44	30	543	307	3	35	
8	0	0	0	0	44	28	540	307	3	35	
9	0	0	0	0	44	25	536	307	3	35	
10	0	0	0	0	44	24	531	307	3	35	
11	0	0	0	0	41	25	527	307	3	35	
12	0	0	0	0	44	30	519	307	3	35	
13	0	0	0	0	44	30	510	307	3	35	
14	0	0	0	0	44	25	497	307	3	35	
15	0	0	0	0	44	25	487	307	3	35	
0	0	0	0	0	44	28	472	307	3	35	
1	0	0	0	0	44	25	455	307	3	35	
2	0	0	0	0	44	25	440	307	3	35	
3	0	0	0	0	44	33	417	307	3	35	
4	0	0	0	0	44	25	398	307	3	35	
5	0	0	0	0	41	25	376	305	3	35	
6	0	0	0	0	41	24	352	305	3	35	
7	0	0	0	0	44	24	332	305	3	35	
8	0	0	0	0	44	28	307	304	3	35	
9	0	0	0	0	44	28	287	304	3	35	
10	0	0	0	0	41	24	263	304	3	35	
11	0	0	0	0	41	24	248	304	3	35	
12	0	0	0	0	41	24	230	304	3	35	
13	0	0	0	0	44	30	214	304	3	35	
14	0	0	0	0	41	28	199	304	3	35	
15	0	0	0	0	44	24	192	304	3	35	
0	0	0	0	0	41	23	184	304	3	35	
1	0	0	0	0	41	24	177	304	3	35	
2	0	0	0	0	41	24	176	304	3	35	
3	0	0	0	0	41	24	179	304	3	35	
4	0	0	0	0	41	24	184	304	3	35	
5	0	0	0	0	41	24	193	304	3	35	
6	0	0	0	0	41	24	207	304	3	35	
7	0	0	0	0	44	24	224	304	3	35	
8	0	0	0	0	41	24	243	304	3	35	
9	0	0	0	0	41	24	263	304	3	35	
10	0	0	0	0	41	28	291	304	3	35	
11	0	0	0	0	39	24	318	304	3	35	
12	0	0	0	0	44	25	344	304	3	35	
13	0	0	0	0	43	25	376	304	3	35	
14	0	0	0	0	44	31	401	305	3	35	
15	0	0	0	0	43	25	432	305	3	35	
0	0	0	0	0	44	25	455	305	3	35	
1	0	0	0	0	44	30	481	305	3	35	
2	0	0	0	0	44	28	504	307	3	35	
3	0	0	0	0	39	25	524	307	3	35	
4	0	0	0	0	44	30	540	307	3	35	
5	0	0	0	0	44	28	551	307	3	35	
6	0	0	0	0	44	28	560	307	3	35	
7	0	0	0	0	44	30	563	307	3	35	
8	0	0	0	0	44	28	568	307	3	35	
9	0	0	0	0	44	30	568	307	3	35	
10	0	0	0	0	44	30	561	307	3	35	
11	0	0	0	0	44	28	556	307	3	35	
12	0	0	0	0	44	28	551	307	3	35	
13	0	0	0	0	44	30	543	307	3	35	
14	0	0	0	0	41	28	536	307	3	35	
15	0	0	0	0	44	24	527	307	3	35	
0	0	0	0	0	44	31	519	307	3	35	
1	0	0	0	0	44	24	513	307	3	35	
2	0	0	0	0	44	28	508	307	3	35	
3	0	0	0	0	44	25	504	307	3	35	
4	0	0	0	0	44	25	504	305	3	35	
5	0	0	0	0	44	30	499	305	3	35	
6	0	0	0	0	44	30	499	305	3	35	
7	0	0	0	0	41	25	499	305	3	35	
8	0	0	0	0	44	31	504	305	3	35	
9	0	0	0	0	44	28	504	305	3	35	
10	0	0	0	0	44	28	504	305	3	35	
11	0	0	0	0	41	28	508	304	3	35	
12	0	0	0	0	44	25	510	304	3	35	
13	0	0	0	0	44	25	512	304	3	35	
14	0	0	0	0	44	28	513	304	3	35	
15	0	0	0	0	44	25	515	304	3	35	
0	0	0	0	0	44	25	518	304	3	35	
1	0	0	0	0	44	25	519	304	3	35	
2	0	0	0	0	41	25	519	304	3	35	
3	0	0	0	0	44	31	519	304	3	35	
4	0	0	0	0	41	28	519	304	3	35	
5	0	0	0	0	44	30	519	304	3	35	
6	0	0	0	0	44	28	519	304	3	35	
7	0	0	0	0	44	25	519	304	3	35	
8	0	0	0	0	44	30	519	305	3	35	
9	0	0	0	0	44	25	519	305	3	35	
10	0	0	0	0	44	25	519	305	3	35	
11	0	0	0	0	44	30	519	305	3	35	
12	0	0	0	0	44	25	519	305	3	35	
13	0	0	0	0	44	25	519	305	3	35	
14	0	0	0	0	41	28	519	307	3	35	
15	0	0	0	0	44	24	519	307	3	35	
0	0	0	0	0	41	25	519	307	3	35	
1	0	0	0	0	44	31	519	307	3	35	
2	0	0	0	0	44	30	519	307	3	35	
3	0	0	0	0	44	28	521	307	3	35	
4	0	0	0	0	44	30	519	307	3	35	
5	0	0	0	0	44	28	521	307	3	35	
6	0	0	0	0	44	27	521	307	3	35	
7	0	0	0	0	44	27	521	307	3	35	
8	0	0	0	0	44	31	521	307	3	35	
9	0	0	0	0	41	25	521	307	3	35	
10	0	0	0	0	44	28	521	307	3	35	
11	0	0	0	0	44	24	521	307	3	35	
12	0	0	0	0	44	28	521	307	3	35	
13	0	0	0	0	44	25	521	307	3	35	
14	0	0	0	0	44	25	521	307	3	35	
15	0	0	0	0	44	25	521	305	3	35	
0	0	0	0	0	44	25	519	305	3	35	
1	0	0	0	0	44	27	519	307	3	35	
2	0	0	0	0	44	28	519	305	3	35	
3	0	0	0	0	41	28	519	305	3	35	
4	0	0	0	0	44	25	519	305	3	35	
5	0	0	0	0	44	28	519	305	3	35	
6	0	0	0	0	41	28	519	305	3	35	
7	0	0	0	0	44	30	519	305	3	35	
8	0	0	0	0	44	31	519	305	3	35	
9	0	0	0	0	44	25	518	305	3	35	
10	0	0	0	0	44	25	518	305	3	35	
11	0	0	0	0	44	25	515	305	3	35	
12	0	0	0	0	44	25	515	307	3	35	
13	0	0	0	0	44	30	515	307	3	35	
14	0	0	0	0	44	31	515	307	3	35	
15	0	0	0	0	41	24	515	307	3	35	
0	0	0	0	0	44	31	515	307	3	35	
1	0	0	0	0	44	24	515	307	3	35	
2	0	0	0	0	44	28	515	307	3	35	
3	0	0	0	0	44	31	513	307	3	35	
4	0	0	0	0	44	31	513	307	3	35	
5	0	0	0	0	44	27	512	307	3	35	
6	0	0	0	0	44	25	512	307	3	35	
7	0	0	0	0	44	30	512	307	3	35	
8	0	0	0	0	44	28	511	307	3	35	
9	0	0	0	0	41	25	511	307	3	35	
10	0	0	0	0	41	24	511	307	3	35	
11	0	0	0	0	41	24	510	307	3	35	
12	0	0	0	0	44	28	510	307	3	35	
13	0	0	0	0	44	25	508	307	3	35	
14	0	0	0	0	44	25	508	307	3	35	
15	0	0	0	0	44	30	508	307	3	35	
0	0	0	0	0	44	25	508	307	3	35	
1	0	0	0	0	44	30	508	307	3	35	
2	0	0	0	0	44	31	505	307	3	35	
3	0	0	0	0	41	30	505	307	3	35	
4	0	0	0	0	44	28	505	307	3	35	
5	0	0	0	0	44	25	504	307	3	35	
6	0	0	0	0	41	25	504	307	3	35	
7	0	0	0	0	44	25	504	307	3	35	
8	0	0	0	0	44	25	504	305	3	35	
9	0	0	0	0	44	30	504	307	3	35	
10	0	0	0	0	44	30	504	307	3	35	
11	0	0	0	0	44	28	504	307	3	35	
12	0	0	0	0	44	25	504	307	3	35	
13	0	0	0	0	44	25	504	305	3	35	
14	0	0	0	0	41	28	502	305	3	35	
15	0	0	0	0	44	24	499	305	3	35	
0	0	0	0	0	41	25	499	305	3	35	
1	0	0	0	0	44	33	499	305	3	35	
2	0	0	0	0	44	28	497	305	3	35	
3	0	0	0	0	44	28	497	304	3	35	
4	0	0	0	0	44	28	496	304	3	35	
5	0	0	0	0	44	25	496	304	3	35	
6	0	0	0	0	44	25	496	304	3	35	
7	0	0	0	0	44	28	496	304	3	35	
8	0	0	0	0	44	28	496	304	3	35	
9	0	0	0	0	44	28	494	304	3	35	
10	0	0	0	0	44	24	494	304	3	35	
11	0	0	0	0	39	24	492	304	3	35	
12	0	0	0	0	44	25	492	304	3	35	
13	0	0	0	0	44	25	492	304	3	35	
14	0	0	0	0	44	28	492	304	3	35	
15	0	0	0	0	44	28	489	305	3	35	
0	0	0	0	0	44	25	487	305	3	35	
1	0	0	0	0	44	25	487	305	3	35	
2	0	0	0	0	41	25	487	305	3	35	
3	0	0	0	0	39	25	487	305	3	35	
4	0	0	0	0	41	25	486	305	3	35	
5	0	0	0	0	44	25	483	307	3	35	
6	0	0	0	0	44	28	483	307	3	35	
7	0	0	0	0	44	25	483	307	3	35	
8	0	0	0	0	44	25	481	307	3	35	
9	0	0	0	0	44	28	480	307	3	35	
10	0	0	0	0	41	25	480	307	3	35	
11	0	0	0	0	44	25	480	307	3	35	
12	0	0	0	0	41	25	480	307	3	35	
13	0	0	0	0	44	28	480	307	3	35	
14	0	0	0	0	44	31	478	307	3	35	
15	0	0	0	0	44	24	478	307	3	35	
0	0	0	0	0	41	24	476	305	3	35	
1	0	0	0	0	41	25	476	305	3	35	
2	0	0	0	0	44	28	476	305	3	35	
3	0	0	0	0	44	25	476	305	3	35	
4	0	0	0	0	44	25	473	305	3	35	
5	0	0	0	0	44	31	472	305	3	35	
6	0	0	0	0	44	28	472	305	3	35	
7	0	0	0	0	41	25	472	305	3	35	
8	0	0	0	0	44	31	472	305	3	35	
9	0	0	0	0	44	28	470	305	3	35	
10	0	0	0	0	44	24	467	305	3	35	
11	0	0	0	0	41	24	467	305	3	35	
12	0	0	0	0	44	25	465	305	3	35	
13	0	0	0	0	44	25	463	305	3	35	
14	0	0	0	0	44	25	463	305	3	35	
15	0	0	0	0	44	28	463	305	3	35	
0	0	0	0	0	44	25	463	305	3	35	
1	0	0	0	0	44	28	462	305	3	35	
2	0	0	0	0	44	25	462	305	3	35	
3	0	0	0	0	41	28	460	305	3	35	
4	0	0	0	0	44	25	460	305	3	35	
5	0	0	0	0	44	24	460	305	3	35	
6	0	0	0	0	39	28	460	305	3	35	
7	0	0	0	0	44	25	457	305	3	35	
8	0	0	0	0	44	25	455	305	3	35	
9	0	0	0	0	44	28	455	305	3	35	
10	0	0	0	0	44	28	455	305	3	35	
11	0	0	0	0	44	25	455	305	3	35	
12	0	0	0	0	44	25	455	305	3	35	
13	0	0	0	0	44	25	454	305	3	35	
14	0	0	0	0	44	30	451	305	3	35	
15	0	0	0	0	44	24	451	305	3	35	
0	0	0	0	0	43	24	451	305	3	35	
1	0	0	0	0	41	28	449	305	3	35	
2	0	0	0	0	44	25	449	305	3	35	
3	0	0	0	0	44	25	449	305	3	35	
4	0	0	0	0	44	25	449	307	3	35	
5	0	0	0	0	44	28	449	305	3	35	
6	0	0	0	0	44	25	449	307	3	35	
7	0	0	0	0	44	25	449	307	3	35	
8	0	0	0	0	44	28	449	307	3	35	
9	0	0	0	0	44	25	451	307	3	35	
10	0	0	0	0	44	25	451	307	3	35	
11	0	0	0	0	41	24	451	307	3	35	
12	0	0	0	0	44	25	451	307	3	35	
13	0	0	0	0	44	25	451	307	3	35	
14	0	0	0	0	44	25	451	307	3	35	
15	0	0	0	0	44	24	454	307	3	35	
0	0	0	0	0	44	28	454	307	3	35	
1	0	0	0	0	44	28	455	307	3	35	
2	0	0	0	0	41	25	455	307	3	35	
3	0	0	0	0	44	25	455	307	3	35	
4	0	0	0	0	43	25	455	307	3	35	
5	0	0	0	0	44	28	455	307	3	35	
6	0	0	0	0	44	31	460	305	3	35	
7	0	0	0	0	44	25	460	305	3	35	
8	0	0	0	0	44	28	463	305	3	35	
9	0	0	0	0	44	28	463	305	3	35	
10	0	0	0	0	44	25	465	305	3	35	
11	0	0	0	0	44	28	467	305	3	35	
12	0	0	0	0	44	25	472	304	3	35	
13	0	0	0	0	44	25	472	304	3	35	
14	0	0	0	0	41	30	472	304	3	35	
15	0	0	0	0	44	30	476	304	3	35	
0	0	0	0	0	41	28	478	304	3	35	
1	0	0	0	0	41	24	480	304	3	35	
2	0	0	0	0	44	27	480	304	3	35	
3	0	0	0	0	44	28	481	304	3	35	
4	0	0	0	0	44	25	483	305	3	35	
5	0	0	0	0	44	25	486	305	3	35	
6	0	0	0	0	44	28	487	305	3	35	
7	0	0	0	0	44	25	487	305	3	35	
8	0	0	0	0	44	28	489	305	3	35	
9	0	0	0	0	44	28	492	305	3	35	
10	0	0	0	0	44	31	494	305	3	35	
11	0	0	0	0	41	24	496	305	3	35	
12	0	0	0	0	44	30	497	305	3	35	
13	0	0	0	0	44	25	499	305	3	35	
14	0	0	0	0	44	28	504	305	3	35	
15	0	0	0	0	44	28	504	305	3	35	
0	0	0	0	0	44	25	505	305	3	35	
1	0	0	0	0	44	30	508	305	3	35	
2	0	0	0	0	44	28	510	305	3	35	
3	0	0	0	0	39	28	511	305	3	35	
4	0	0	0	0	41	28	512	305	3	35	
5	0	0	0	0	44	28	513	305	3	35	
6	0	0	0	0	44	31	515	305	3	35	
7	0	0	0	0	44	30	515	305	3	35	
8	0	0	0	0	44	25	519	305	3	35	
9	0	0	0	0	44	25	519	305	3	35	
10	0	0	0	0	44	25	519	305	3	35	
11	0	0	0	0	44	25	519	305	3	35	
12	0	0	0	0	44	25	521	304	3	35	
13	0	0	0	0	44	25	524	304	3	35	
14	0	0	0	0	44	31	524	305	3	35	
15	0	0	0	0	44	24	526	305	3	35	
0	0	0	0	0	44	30	527	305	3	35	
1	0	0	0	0	44	31	527	305	3	35	
2	0	0	0	0	44	28	527	305	3	35	
3	0	0	0	0	44	25	529	304	3	35	
4	0	0	0	0	44	25	531	305	3	35	
5	0	0	0	0	41	25	531	305	3	35	
6	0	0	0	0	44	25	534	305	3	35	
7	0	0	0	0	44	25	536	305	3	35	
8	0	0	0	0	44	28	536	305	3	35	
9	0	0	0	0	44	31	536	305	3	35	
10	0	0	0	0	44	30	536	305	3	35	
11	0	0	0	0	41	30	536	305	3	35	
12	0	0	0	0	44	25	536	305	3	35	
13	0	0	0	0	44	30	536	305	3	35	
14	0	0	0	0	44	25	536	305	3	35	
15	0	0	0	0	44	25	536	307	3	35	
0	0	0	0	0	44	30	536	307	3	35	
1	0	0	0	0	44	28	536	307	3	35	
2	0	0	0	0	44	28	536	307	3	35	
3	0	0	0	0	44	28	536	307	3	35	
4	0	0	0	0	44	30	536	307	3	35	
5	0	0	0	0	44	28	536	307	3	35	
6	0	0	0	0	41	30	536	307	3	35	
7	0	0	0	0	44	28	537	307	3	35	
8	0	0	0	0	44	28	537	307	3	35	
9	0	0	0	0	41	28	540	307	3	35	
10	0	0	0	0	44	28	540	307	3	35	
11	0	0	0	0	41	27	540	307	3	35	
12	0	0	0	0	44	28	540	307	3	35	
13	0	0	0	0	44	31	540	307	3	35	
14	0	0	0	0	41	28	540	307	3	35	
15	0	0	0	0	44	28	540	307	3	35	
0	0	0	0	0	44	28	540	307	3	35	
1	0	0	0	0	44	30	540	307	3	35	
2	0	0	0	0	44	30	540	307	3	35	
3	0	0	0	0	44	30	540	307	3	35	
4	0	0	0	0	41	27	540	307	3	35	
5	0	0	0	0	44	27	537	307	3	35	
6	0	0	0	0	44	31	537	305	3	35	
7	0	0	0	0	44	27	537	305	3	35	
8	0	0	0	0	44	31	537	305	3	35	
9	0	0	0	0	41	25	537	305	3	35	
10	0	0	0	0	44	31	536	305	3	35	
11	0	0	0	0	41	25	537	305	3	35	
12	0	0	0	0	44	25	537	305	3	35	
13	0	0	0	0	44	25	537	304	3	35	
14	0	0	0	0	44	30	537	304	3	35	
15	0	0	0	0	44	25	537	304	3	35	
0	0	0	0	0	44	25	537	304	3	35	
1	0	0	0	0	41	25	536	304	3	35	
2	0	0	0	0	44	28	536	304	3	35	
3	0	0	0	0	39	28	536	304	3	35	
4	0	0	0	0	44	28	536	304	3	35	
5	0	0	0	0	44	25	536	304	3	35	
6	0	0	0	0	39	25	536	304	3	35	
7	0	0	0	0	44	30	536	304	3	35	
8	0	0	0	0	44	25	536	304	3	35	
9	0	0	0	0	44	28	536	304	3	35	
10	0	0	0	0	44	25	536	304	3	35	
11	0	0	0	0	44	25	536	304	3	35	
12	0	0	0	0	44	25	536	304	3	35	
13	0	0	0	0	44	25	536	305	3	35	
14	0	0	0	0	44	31	536	307	3	35	
15	0	0	0	0	44	25	536	307	3	35	
0	0	0	0	0	44	28	536	307	3	35	
1	0	0	0	0	44	24	536	307	3	35	
2	0	0	0	0	44	28	536	310	3	35	
3	0	0	0	0	44	28	536	310	3	35	
4	0	0	0	0	44	28	536	310	3	35	
5	0	0	0	0	44	28	536	310	3	35	
6	0	0	0	0	44	28	536	310	3	35	
7	0	0	0	0	44	28	536	312	3	35	
8	0	0	0	0	44	28	536	310	3	35	
9	0	0	0	0	44	25	536	310	3	35	
10	0	0	0	0	44	24	536	310	3	35	
11	0	0	0	0	44	30	536	307	3	35	
12	0	0	0	0	44	28	536	307	3	35	
13	0	0	0	0	44	27	536	307	3	35	
14	0	0	0	0	44	25	534	307	3	35	
15	0	0	0	0	44	25	534	307	3	35	
0	0	0	0	0	44	25	534	307	3	35	
1	0	0	0	0	44	28	534	305	3	35	
2	0	0	0	0	44	30	534	305	3	35	
3	0	0	0	0	44	31	534	305	3	35	
4	0	0	0	0	44	27	534	305	3	35	
5	0	0	0	0	44	25	534	305	3	35	
6	0	0	0	0	43	28	534	305	3	35	
7	0	0	0	0	44	27	531	305	3	35	
8	0	0	0	0	44	25	531	305	3	35	
9	0	0	0	0	44	25	531	305	3	35	
10	0	0	0	0	44	25	531	305	3	35	
11	0	0	0	0	41	25	531	305	3	35	
12	0	0	0	0	44	25	531	305	3	35	
13	0	0	0	0	44	25	531	305	3	35	
14	0	0	0	0	44	31	531	305	3	35	
15	0	0	0	0	44	24	531	305	3	35	
0	0	0	0	0	44	31	531	307	3	35	
1	0	0	0	0	43	30	529	307	3	35	
2	0	0	0	0	44	28	529	307	3	35	
3	0	0	0	0	44	28	529	307	3	35	
4	0	0	0	0	44	27	529	307	3	35	
5	0	0	0	0	44	28	529	307	3	35	
6	0	0	0	0	41	27	527	307	3	35	
7	0	0	0	0	44	30	527	307	3	35	
8	0	0	0	0	44	28	527	307	3	35	
9	0	0	0	0	44	30	527	307	3	35	
10	0	0	0	0	44	24	527	307	3	35	
11	0	0	0	0	41	28	527	307	3	35	
12	0	0	0	0	44	27	527	307	3	35	
13	0	0	0	0	44	25	527	307	3	35	
14	0	0	0	0	44	25	527	307	3	35	
15	0	0	0	0	44	25	527	307	3	35	
0	0	0	0	0	41	25	526	307	3	35	
1	0	0	0	0	44	25	526	307	3	35	
2	0	0	0	0	41	28	526	307	3	35	
3	0	0	0	0	39	25	526	305	3	35	
4	0	0	0	0	44	28	524	305	3	35	
5	0	0	0	0	44	27	524	305	3	35	
6	0	0	0	0	41	28	524	305	3	35	
7	0	0	0	0	44	30	524	305	3	35	
8	0	0	0	0	44	30	524	305	3	35	
9	0	0	0	0	44	30	524	305	3	35	
10	0	0	0	0	44	28	526	304	3	35	
11	0	0	0	0	44	25	526	304	3	35	
12	0	0	0	0	44	25	526	305	3	35	
13	0	0	0	0	41	25	526	305	3	35	
14	0	0	0	0	44	31	524	305	3	35	
15	0	0	0	0	44	24	524	305	3	35	
0	0	0	0	0	41	28	524	305	3	35	
1	0	0	0	0	44	28	524	305	3	35	
2	0	0	0	0	44	28	524	305	3	35	
3	0	0	0	0	44	25	524	305	3	35	
4	0	0	0	0	44	25	524	305	3	35	
5	0	0	0	0	44	30	524	305	3	35	
6	0	0	0	0	44	25	524	304	3	35	
7	0	0	0	0	44	31	524	304	3	35	
8	0	0	0	0	44	28	524	304	3	35	
9	0	0	0	0	41	25	524	304	3	35	
10	0	0	0	0	44	28	524	304	3	35	
11	0	0	0	0	41	24	524	304	3	35	
12	0	0	0	0	44	25	524	304	3	35	
13	0	0	0	0	44	28	524	304	3	35	
14	0	0	0	0	44	28	524	304	3	35	
15	0	0	0	0	44	25	524	304	3	35	
0	0	0	0	0	44	25	524	304	3	35	
1	0	0	0	0	44	30	524	304	3	35	
2	0	0	0	0	44	28	524	305	3	35	
3	0	0	0	0	41	30	524	305	3	35	
4	0	0	0	0	41	28	524	305	3	35	
5	0	0	0	0	44	24	524	305	3	35	
6	0	0	0	0	41	28	524	305	3	35	
7	0	0	0	0	44	24	524	305	3	35	
8	0	0	0	0	44	28	524	305	3	35	
9	0	0	0	0	44	30	524	305	3	35	
10	0	0	0	0	44	25	524	305	3	35	
11	0	0	0	0	44	25	524	305	3	35	
12	0	0	0	0	44	25	524	305	3	35	
13	0	0	0	0	44	25	521	305	3	35	
14	0	0	0	0	41	28	521	305	3	35	
15	0	0	0	0	44	25	521	305	3	35	
0	0	0	0	0	41	28	521	307	3	35	
1	0	0	0	0	41	28	521	307	3	35	
2	0	0	0	0	44	28	521	307	3	35	
3	0	0	0	0	44	25	521	307	3	35	
4	0	0	0	0	44	30	521	307	3	35	
5	0	0	0	0	44	30	524	307	3	35	
6	0	0	0	0	44	30	524	307	3	35	
7	0	0	0	0	44	25	524	307	3	35	
8	0	0	0	0	44	28	524	307	3	35	
9	0	0	0	0	44	31	523	307	3	35	
10	0	0	0	0	44	30	524	307	3	35	
11	0	0	0	0	41	25	523	307	3	35	
12	0	0	0	0	44	25	521	307	3	35	
13	0	0	0	0	44	25	521	307	3	35	
14	0	0	0	0	44	25	521	307	3	35	
15	0	0	0	0	44	30	521	307	3	35	
0	0	0	0	0	44	30	521	307	3	35	
1	0	0	0	0	44	30	521	307	3	35	
2	0	0	0	0	44	28	521	307	3	35	
3	0	0	0	0	44	31	521	307	3	35	
4	0	0	0	0	44	28	521	307	3	35	
5	0	0	0	0	44	30	521	307	3	35	
6	0	0	0	0	44	25	524	307	3	35	
7	0	0	0	0	44	30	524	307	3	35	
8	0	0	0	0	44	30	524	307	3	35	
9	0	0	0	0	44	25	524	307	3	35	
10	0	0	0	0	44	30	524	307	3	35	
11	0	0	0	0	41	25	524	307	3	35	
12	0	0	0	0	44	25	524	307	3	35	
13	0	0	0	0	44	31	524	307	3	35	
14	0	0	0	0	41	28	524	307	3	35	
15	0	0	0	0	44	25	524	307	3	35	
0	0	0	0	0	44	25	524	307	3	35	
1	0	0	0	0	44	31	524	307	3	35	
2	0	0	0	0	44	28	524	307	3	35	
3	0	0	0	0	44	27	524	307	3	35	
4	0	0	0	0	44	25	524	307	3	35	
5	0	0	0	0	44	25	521	307	3	35	
6	0	0	0	0	44	27	521	307	3	35	
7	0	0	0	0	44	25	521	307	3	35	
8	0	0	0	0	39	28	524	307	3	35	
9	0	0	0	0	44	25	524	305	3	35	
10	0	0	0	0	44	30	524	305	3	35	
11	0	0	0	0	41	24	524	305	3	35	
12	0	0	0	0	44	30	524	305	3	35	
13	0	0	0	0	44	25	524	305	3	35	
14	0	0	0	0	44	28	524	305	3	35	
15	0	0	0	0	44	25	524	305	3	35	
0	0	0	0	0	44	28	524	304	3	35	
1	0	0	0	0	44	25	524	304	3	35	
2	0	0	0	0	44	28	524	304	3	35	
3	0	0	0	0	44	33	524	304	3	35	
4	0	0	0	0	44	28	524	304	3	35	
5	0	0	0	0	44	31	524	304	3	35	
6	0	0	0	0	44	31	524	304	3	35	
7	0	0	0	0	44	25	524	304	3	35	
8	0	0	0	0	44	30	524	304	3	35	
9	0	0	0	0	44	28	524	304	3	35	
10	0	0	0	0	44	30	524	304	3	35	
11	0	0	0	0	44	25	524	304	3	35	
12	0	0	0	0	44	25	524	304	3	35	
13	0	0	0	0	44	25	524	304	3	35	
14	0	0	0	0	44	31	526	305	3	35	
15	0	0	0	0	41	25	526	304	3	35	
0	0	0	0	0	44	28	526	305	3	35	
1	0	0	0	0	41	28	527	305	3	35	
2	0	0	0	0	44	28	527	305	3	35	
3	0	0	0	0	44	25	527	305	3	35	
4	0	0	0	0	44	30	527	305	3	35	
5	0	0	0	0	44	25	527	305	3	35	
6	0	0	0	0	44	25	527	305	3	35	
7	0	0	0	0	44	25	527	307	3	35	
8	0	0	0	0	44	28	527	307	3	35	
9	0	0	0	0	44	30	526	307	3	35	
10	0	0	0	0	44	24	526	307	3	35	
11	0	0	0	0	44	24	526	307	3	35	
12	0	0	0	0	44	30	526	307	3	35	
13	0	0	0	0	44	30	526	307	3	35	
14	0	0	0	0	44	30	526	307	3	35	
15	0	0	0	0	44	28	526	307	3	35	
0	0	0	0	0	44	28	527	307	3	35	
1	0	0	0	0	44	31	527	307	3	35	
2	0	0	0	0	44	28	527	307	3	35	
3	0	0	0	0	44	25	527	307	3	35	
4	0	0	0	0	44	30	527	307	3	35	
5	0	0	0	0	44	24	527	307	3	35	
6	0	0	0	0	41	24	527	307	3	35	
7	0	0	0	0	44	28	527	308	3	35	
8	0	0	0	0	44	28	527	310	3	35	
9	0	0	0	0	44	28	527	310	3	35	
10	0	0	0	0	44	28	527	310	3	35	
11	0	0	0	0	44	24	527	310	3	35	
12	0	0	0	0	44	30	527	310	3	35	
13	0	0	0	0	44	28	527	310	3	35	
14	0	0	0	0	41	28	527	310	3	35	
15	0	0	0	0	44	25	526	310	3	35	
0	0	0	0	0	44	28	526	310	3	35	
1	0	0	0	0	44	28	526	310	3	35	
2	0	0	0	0	44	28	526	307	3	35	
3	0	0	0	0	44	28	526	307	3	35	
4	0	0	0	0	44	28	526	307	3	35	
5	0	0	0	0	44	28	524	307	3	35	
6	0	0	0	0	44	28	526	307	3	35	
7	0	0	0	0	44	28	526	307	3	35	
8	0	0	0	0	44	31	526	307	3	35	
9	0	0	0	0	44	25	526	307	3	35	
10	0	0	0	0	44	24	526	307	3	35	
11	0	0	0	0	41	24	526	307	3	35	
12	0	0	0	0	44	30	526	307	3	35	
13	0	0	0	0	44	30	526	307	3	35	
14	0	0	0	0	41	28	526	307	3	35	
15	0	0	0	0	44	28	526	307	3	35	
0	0	0	0	0	41	28	526	307	3	35	
1	0	0	0	0	41	28	524	307	3	35	
2	0	0	0	0	44	28	524	307	3	35	
3	0	0	0	0	41	25	524	307	3	35	
4	0	0	0	0	44	28	524	307	3	35	
5	0	0	0	0	44	24	521	307	3	35	
6	0	0	0	0	44	24	519	307	3	35	
7	0	0	0	0	44	30	519	307	3	35	
8	0	0	0	0	44	28	519	307	3	35	
9	0	0	0	0	44	28	519	307	3	35	
10	0	0	0	0	44	27	519	305	3	35	
11	0	0	0	0	44	25	519	305	3	35	
12	0	0	0	0	44	25	519	305	3	35	
13	0	0	0	0	44	25	519	305	3	35	
14	0	0	0	0	41	28	519	305	3	35	
15	0	0	0	0	44	24	519	304	3	35	
0	0	0	0	0	44	31	519	304	3	35	
1	0	0	0	0	41	28	519	304	3	35	
2	0	0	0	0	44	30	518	304	3	35	
3	0	0	0	0	44	25	518	304	3	35	
4	0	0	0	0	44	28	518	304	3	35	
5	0	0	0	0	44	25	518	304	3	35	
6	0	0	0	0	44	25	515	304	3	35	
7	0	0	0	0	44	25	515	304	3	35	
8	0	0	0	0	41	28	515	304	3	35	
9	0	0	0	0	41	24	515	304	3	35	
10	0	0	0	0	41	24	515	304	3	35	
11	0	0	0	0	41	28	515	304	3	35	
12	0	0	0	0	44	28	515	304	3	35	
13	0	0	0	0	44	25	515	304	3	35	
14	0	0	0	0	44	28	515	304	3	35	
15	0	0	0	0	44	25	515	304	3	35	
0	0	0	0	0	44	25	513	304	3	35	
1	0	0	0	0	44	28	513	304	3	35	
2	0	0	0	0	44	25	513	304	3	35	
3	0	0	0	0	44	33	512	304	3	35	
4	0	0	0	0	41	28	512	304	3	35	
5	0	0	0	0	44	28	512	304	3	35	
6	0	0	0	0	41	28	511	304	3	35	
7	0	0	0	0	44	25	511	304	3	35	
8	0	0	0	0	44	25	511	304	3	35	
9	0	0	0	0	44	25	511	304	3	35	
10	0	0	0	0	41	25	510	304	3	35	
11	0	0	0	0	44	25	510	304	3	35	
12	0	0	0	0	44	31	508	304	3	35	
13	0	0	0	0	44	25	508	304	3	35	
14	0	0	0	0	41	28	508	304	3	35	
15	0	0	0	0	44	28	505	304	3	35	
0	0	0	0	0	44	28	505	304	3	35	
1	0	0	0	0	44	31	504	304	3	35	
2	0	0	0	0	44	28	504	304	3	35	
3	0	0	0	0	44	25	504	304	3	35	
4	0	0	0	0	44	25	504	304	3	35	
5	0	0	0	0	44	31	504	304	3	35	
6	0	0	0	0	44	25	504	304	3	35	
7	0	0	0	0	44	25	504	304	3	35	
8	0	0	0	0	44	31	504	304	3	35	
9	0	0	0	0	41	25	504	304	3	35	
10	0	0	0	0	44	28	504	304	3	35	
11	0	0	0	0	43	25	504	304	3	35	
12	0	0	0	0	44	25	505	304	3	35	
13	0	0	0	0	44	25	505	304	3	35	
14	0	0	0	0	44	31	505	305	3	35	
15	0	0	0	0	44	30	508	305	3	35	
0	0	0	0	0	44	30	508	305	3	35	
1	0	0	0	0	44	30	508	305	3	35	
2	0	0	0	0	44	30	510	305	3	35	
3	0	0	0	0	41	25	511	305	3	35	
4	0	0	0	0	44	25	511	305	3	35	
5	0	0	0	0	44	25	512	305	3	35	
6	0	0	0	0	41	25	513	305	3	35	
7	0	0	0	0	44	28	515	305	3	35	
8	0	0	0	0	44	25	518	305	3	35	
9	0	0	0	0	44	30	519	305	3	35	
10	0	0	0	0	41	25	519	305	3	35	
11	0	0	0	0	44	25	524	305	3	35	
12	0	0	0	0	41	25	524	305	3	35	
13	0	0	0	0	44	25	526	305	3	35	
14	0	0	0	0	39	28	527	305	3	35	
15	0	0	0	0	44	24	527	305	3	35	
0	0	0	0	0	41	24	527	305	3	35	
1	0	0	0	0	41	24	529	305	3	35	
2	0	0	0	0	44	30	531	305	3	35	
3	0	0	0	0	44	31	531	305	3	35	
4	0	0	0	0	44	25	531	305	3	35	
5	0	0	0	0	44	25	531	305	3	35	
6	0	0	0	0	44	25	531	305	3	35	
7	0	0	0	0	41	25	531	305	3	35	
8	0	0	0	0	44	28	531	305	3	35	
9	0	0	0	0	43	25	529	305	3	35	
10	0	0	0	0	44	25	529	305	3	35	
11	0	0	0	0	44	28	529	305	3	35	
12	0	0	0	0	44	25	529	305	3	35	
13	0	0	0	0	44	25	527	305	3	35	
14	0	0	0	0	44	25	527	305	3	35	
15	0	0	0	0	44	25	527	305	3	35	
0	0	0	0	0	44	25	527	305	3	35	
1	0	0	0	0	44	25	527	305	3	35	
2	0	0	0	0	44	30	527	305	3	35	
3	0	0	0	0	44	35	527	305	3	35	
4	0	0	0	0	44	28	527	305	3	35	
5	0	0	0	0	44	25	527	305	3	35	
6	0	0	0	0	44	28	527	305	3	35	
7	0	0	0	0	44	25	527	305	3	35	
8	0	0	0	0	44	25	527	305	3	35	
9	0	0	0	0	44	30	527	305	3	35	
10	0	0	0	0	44	25	527	305	3	35	
11	0	0	0	0	44	25	527	305	3	35	
12	0	0	0	0	44	30	527	305	3	35	
13	0	0	0	0	44	30	527	304	3	35	
14	0	0	0	0	41	28	529	304	3	35	
15	0	0	0	0	44	28	529	304	3	35	
0	0	0	0	0	44	28	529	304	3	35	
1	0	0	0	0	43	24	529	304	3	35	
2	0	0	0	0	44	28	529	304	3	35	
3	0	0	0	0	44	25	529	304	3	35	
4	0	0	0	0	44	25	529	304	3	35	
5	0	0	0	0	44	25	531	304	3	35	
6	0	0	0	0	44	25	529	304	3	35	
7	0	0	0	0	44	28	529	304	3	35	
8	0	0	0	0	44	31	529	304	3	35	
9	0	0	0	0	41	25	529	304	3	35	
10	0	0	0	0	44	25	529	304	3	35	
11	0	0	0	0	44	31	527	304	3	35	
12	0	0	0	0	44	25	527	304	3	35	
13	0	0	0	0	44	25	527	304	3	35	
14	0	0	0	0	44	25	527	304	3	35	
15	0	0	0	0	44	25	527	304	3	35	
0	0	0	0	0	44	25	527	304	3	35	
1	0	0	0	0	44	25	527	305	3	35	
2	0	0	0	0	44	28	527	305	3	35	
3	0	0	0	0	41	28	527	305	3	35	
4	0	0	0	0	44	28	527	305	3	35	
5	0	0	0	0	44	25	527	305	3	35	
6	0	0	0	0	41	30	527	305	3	35	
7	0	0	0	0	44	28	527	305	3	35	
8	0	0	0	0	44	31	527	305	3	35	
9	0	0	0	0	44	30	529	307	3	35	
10	0	0	0	0	44	27	531	307	3	35	
11	0	0	0	0	44	27	531	307	3	35	
12	0	0	0	0	44	30	531	307	3	35	
13	0	0	0	0	44	30	536	307	3	35	
14	0	0	0	0	41	28	536	305	3	35	
15	0	0	0	0	44	25	537	307	3	35	
0	0	0	0	0	44	24	540	305	3	35	
1	0	0	0	0	41	30	542	305	3	35	
2	0	0	0	0	44	28	543	305	3	35	
3	0	0	0	0	41	28	543	305	3	35	
4	0	0	0	0	44	28	543	305	3	35	
5	0	0	0	0	43	28	543	305	3	35	
6	0	0	0	0	44	28	543	305	3	35	
7	0	0	0	0	44	28	543	305	3	35	
8	0	0	0	0	44	28	542	305	3	35	
9	0	0	0	0	44	25	536	305	3	35	
10	0	0	0	0	41	25	531	305	3	35	
11	0	0	0	0	41	24	524	305	3	35	
12	0	0	0	0	44	25	515	305	3	35	
13	0	0	0	0	44	30	505	305	3	35	
14	0	0	0	0	44	25	494	305	3	35	
15	0	0	0	0	44	25	480	305	3	35	
0	0	0	0	0	44	31	463	305	3	35	
1	0	0	0	0	44	25	448	305	3	35	
2	0	0	0	0	43	25	430	305	3	35	
3	0	0	0	0	41	28	408	307	3	35	
4	0	0	0	0	44	28	387	307	3	35	
5	0	0	0	0	44	28	367	305	3	35	
6	0	0	0	0	41	25	344	305	3	35	
7	0	0	0	0	44	25	319	305	3	35	
8	0	0	0	0	44	24	300	307	3	35	
9	0	0	0	0	44	24	280	307	3	35	
10	0	0	0	0	44	24	255	307	3	35	
11	0	0	0	0	41	24	240	307	3	35	
12	0	0	0	0	44	24	224	305	3	35	
13	0	0	0	0	44	24	207	307	3	35	
14	0	0	0	0	44	31	198	307	3	35	
15	0	0	0	0	41	24	188	307	3	35	
0	0	0	0	0	44	30	179	305	3	35	
1	0	0	0	0	44	30	176	305	3	35	
2	0	0	0	0	44	24	176	304	3	35	
3	0	0	0	0	44	24	177	304	3	35	
4	0	0	0	0	44	24	184	304	3	35	
5	0	0	0	0	44	24	195	304	3	35	
6	0	0	0	0	44	28	207	304	3	35	
7	0	0	0	0	44	28	227	304	3	35	
8	0	0	0	0	44	25	248	304	3	35	
9	0	0	0	0	44	24	271	304	3	35	
10	0	0	0	0	44	24	295	304	3	35	
11	0	0	0	0	44	28	326	304	3	35	
12	0	0	0	0	44	25	353	304	3	35	
13	0	0	0	0	44	25	384	304	3	35	
14	0	0	0	0	44	25	412	304	3	35	
15	0	0	0	0	44	28	440	304	3	35	
0	0	0	0	0	44	28	467	304	3	35	
1	0	0	0	0	44	25	492	304	3	35	
2	0	0	0	0	44	28	512	305	3	35	
3	0	0	0	0	39	25	529	305	3	35	
4	0	0	0	0	44	31	543	305	3	35	
5	0	0	0	0	44	28	556	307	3	35	
6	0	0	0	0	44	31	560	307	3	35	
7	0	0	0	0	44	28	566	307	3	35	
8	0	0	0	0	44	30	566	307	3	35	
9	0	0	0	0	44	30	563	307	3	35	
10	0	0	0	0	44	28	560	307	3	35	
11	0	0	0	0	44	30	551	307	3	35	
12	0	0	0	0	44	28	543	308	3	35	
13	0	0	0	0	44	30	540	310	3	35	
14	0	0	0	0	44	31	531	310	3	35	
15	0	0	0	0	44	24	526	310	3	35	
0	0	0	0	0	44	28	519	310	3	35	
1	0	0	0	0	41	24	513	312	3	35	
2	0	0	0	0	44	30	511	312	3	35	
3	0	0	0	0	44	28	508	310	3	35	
4	0	0	0	0	44	30	505	312	3	35	
5	0	0	0	0	44	28	504	312	3	35	
6	0	0	0	0	44	30	504	312	3	35	
7	0	0	0	0	44	28	505	312	3	35	
8	0	0	0	0	44	28	508	312	3	35	
9	0	0	0	0	44	31	510	312	3	35	
10	0	0	0	0	44	28	511	310	3	35	
11	0	0	0	0	44	24	512	310	3	35	
12	0	0	0	0	44	28	515	310	3	35	
13	0	0	0	0	44	28	515	310	3	35	
14	0	0	0	0	44	28	519	308	3	35	
15	0	0	0	0	43	28	519	307	3	35	
0	0	0	0	0	44	28	519	307	3	35	
1	0	0	0	0	44	30	519	307	3	35	
2	0	0	0	0	44	30	521	307	3	35	
3	0	0	0	0	41	30	524	307	3	35	
4	0	0	0	0	44	33	524	307	3	35	
5	0	0	0	0	44	28	524	307	3	35	
6	0	0	0	0	44	31	524	307	3	35	
7	0	0	0	0	44	28	524	307	3	35	
8	0	0	0	0	44	30	524	307	3	35	
9	0	0	0	0	41	28	524	307	3	35	
10	0	0	0	0	44	30	524	307	3	35	
11	0	0	0	0	44	31	524	307	3	35	
12	0	0	0	0	44	28	524	307	3	35	
13	0	0	0	0	44	30	524	307	3	35	
14	0	0	0	0	41	28	524	307	3	35	
15	0	0	0	0	44	25	524	307	3	35	
0	0	0	0	0	44	25	524	307	3	35	
1	0	0	0	0	44	31	524	307	3	35	
2	0	0	0	0	44	28	524	307	3	35	
3	0	0	0	0	44	28	524	307	3	35	
4	0	0	0	0	44	31	524	307	3	35	
5	0	0	0	0	44	28	524	307	3	35	
6	0	0	0	0	44	30	524	307	3	35	
7	0	0	0	0	44	28	524	307	3	35	
8	0	0	0	0	44	31	524	307	3	35	
9	0	0	0	0	44	25	524	307	3	35	
10	0	0	0	0	44	25	524	307	3	35	
11	0	0	0	0	44	28	524	307	3	35	
12	0	0	0	0	44	28	524	307	3	35	
13	0	0	0	0	41	28	524	307	3	35	
14	0	0	0	0	44	30	524	307	3	35	
15	0	0	0	0	44	27	524	305	3	35	
0	0	0	0	0	44	28	524	305	3	35	
1	0	0	0	0	44	30	524	305	3	35	
2	0	0	0	0	44	28	524	305	3	35	
3	0	0	0	0	44	28	521	305	3	35	
4	0	0	0	0	44	30	519	305	3	35	
5	0	0	0	0	44	28	519	305	3	35	
6	0	0	0	0	44	30	519	305	3	35	
7	0	0	0	0	41	28	519	305	3	35	
8	0	0	0	0	44	25	519	305	3	35	
9	0	0	0	0	44	30	519	305	3	35	
10	0	0	0	0	44	30	518	304	3	35	
11	0	0	0	0	44	25	518	304	3	35	
12	0	0	0	0	44	25	518	304	3	35	
13	0	0	0	0	44	30	518	304	3	35	
14	0	0	0	0	41	28	516	305	3	35	
15	0	0	0	0	44	24	516	305	3	35	
0	0	0	0	0	44	28	515	305	3	35	
1	0	0	0	0	44	24	515	305	3	35	
2	0	0	0	0	44	28	515	305	3	35	
3	0	0	0	0	44	27	515	305	3	35	
4	0	0	0	0	44	25	515	305	3	35	
5	0	0	0	0	41	28	515	305	3	35	
6	0	0	0	0	44	27	515	307	3	35	
7	0	0	0	0	44	24	515	307	3	35	
8	0	0	0	0	44	30	515	307	3	35	
9	0	0	0	0	44	25	513	307	3	35	
10	0	0	0	0	44	28	513	305	3	35	
11	0	0	0	0	44	31	512	305	3	35	
12	0	0	0	0	44	25	512	305	3	35	
13	0	0	0	0	44	30	512	305	3	35	
14	0	0	0	0	44	25	512	305	3	35	
15	0	0	0	0	44	28	511	305	3	35	
0	0	0	0	0	44	25	511	305	3	35	
1	0	0	0	0	44	25	511	305	3	35	
2	0	0	0	0	44	28	511	305	3	35	
3	0	0	0	0	41	25	511	305	3	35	
4	0	0	0	0	44	25	510	304	3	35	
5	0	0	0	0	44	24	510	305	3	35	
6	0	0	0	0	41	28	508	304	3	35	
7	0	0	0	0	44	31	508	304	3	35	
8	0	0	0	0	44	25	508	304	3	35	
9	0	0	0	0	44	25	505	304	3	35	
10	0	0	0	0	44	28	504	304	3	35	
11	0	0	0	0	44	28	504	304	3	35	
12	0	0	0	0	44	25	504	305	3	35	
13	0	0	0	0	44	25	504	305	3	35	
14	0	0	0	0	44	31	502	305	3	35	
15	0	0	0	0	44	24	499	305	3	35	
0	0	0	0	0	44	25	499	305	3	35	
1	0	0	0	0	44	31	499	305	3	35	
2	0	0	0	0	44	28	499	305	3	35	
3	0	0	0	0	44	30	497	305	3	35	
4	0	0	0	0	44	30	497	305	3	35	
5	0	0	0	0	44	25	496	305	3	35	
6	0	0	0	0	44	25	496	305	3	35	
7	0	0	0	0	44	30	496	307	3	35	
8	0	0	0	0	44	28	496	305	3	35	
9	0	0	0	0	44	25	496	305	3	35	
10	0	0	0	0	44	24	496	307	3	35	
11	0	0	0	0	44	25	496	307	3	35	
12	0	0	0	0	44	30	496	307	3	35	
13	0	0	0	0	41	25	494	307	3	35	
14	0	0	0	0	44	28	494	307	3	35	
15	0	0	0	0	44	28	492	307	3	35	
0	0	0	0	0	44	25	492	307	3	35	
1	0	0	0	0	44	30	492	307	3	35	
2	0	0	0	0	44	30	489	307	3	35	
3	0	0	0	0	41	28	487	307	3	35	
4	0	0	0	0	44	28	487	305	3	35	
5	0	0	0	0	41	25	487	305	3	35	
6	0	0	0	0	44	31	487	305	3	35	
7	0	0	0	0	44	30	487	305	3	35	
8	0	0	0	0	44	25	487	305	3	35	
9	0	0	0	0	44	28	486	305	3	35	
10	0	0	0	0	44	25	486	305	3	35	
11	0	0	0	0	44	28	483	305	3	35	
12	0	0	0	0	44	25	483	305	3	35	
13	0	0	0	0	44	25	483	305	3	35	
14	0	0	0	0	44	31	481	305	3	35	
15	0	0	0	0	44	24	480	305	3	35	
0	0	0	0	0	44	24	480	305	3	35	
1	0	0	0	0	43	28	480	305	3	35	
2	0	0	0	0	44	28	478	305	3	35	
3	0	0	0	0	44	25	476	305	3	35	
4	0	0	0	0	44	28	476	305	3	35	
5	0	0	0	0	44	28	473	305	3	35	
6	0	0	0	0	44	28	472	305	3	35	
7	0	0	0	0	44	25	472	305	3	35	
8	0	0	0	0	44	28	472	305	3	35	
9	0	0	0	0	44	31	472	305	3	35	
10	0	0	0	0	44	25	472	305	3	35	
11	0	0	0	0	44	24	472	305	3	35	
12	0	0	0	0	44	25	470	305	3	35	
13	0	0	0	0	44	28	470	305	3	35	
14	0	0	0	0	44	25	467	305	3	35	
15	0	0	0	0	41	25	467	305	3	35	
0	0	0	0	0	44	25	467	305	3	35	
1	0	0	0	0	44	28	467	305	3	35	
2	0	0	0	0	44	25	467	305	3	35	
3	0	0	0	0	39	24	465	304	3	35	
4	0	0	0	0	41	25	463	304	3	35	
5	0	0	0	0	44	25	463	304	3	35	
6	0	0	0	0	41	24	463	304	3	35	
7	0	0	0	0	44	28	463	304	3	35	
8	0	0	0	0	44	25	463	304	3	35	
9	0	0	0	0	44	28	462	304	3	35	
10	0	0	0	0	44	25	462	304	3	35	
11	0	0	0	0	41	25	460	304	3	35	
12	0	0	0	0	44	28	460	304	3	35	
13	0	0	0	0	44	28	460	304	3	35	
14	0	0	0	0	41	28	459	304	3	35	
15	0	0	0	0	44	24	457	304	3	35	
0	0	0	0	0	44	28	455	304	3	35	
1	0	0	0	0	41	28	455	304	3	35	
2	0	0	0	0	44	30	455	305	3	35	
3	0	0	0	0	44	28	455	305	3	35	
4	0	0	0	0	44	25	455	305	3	35	
5	0	0	0	0	44	25	455	305	3	35	
6	0	0	0	0	44	25	455	307	3	35	
7	0	0	0	0	44	25	455	307	3	35	
8	0	0	0	0	39	28	455	307	3	35	
9	0	0	0	0	44	25	455	307	3	35	
10	0	0	0	0	41	24	455	307	3	35	
11	0	0	0	0	44	22	455	307	3	35	
12	0	0	0	0	44	30	455	307	3	35	
13	0	0	0	0	44	28	455	307	3	35	
14	0	0	0	0	44	25	455	307	3	35	
15	0	0	0	0	44	28	455	307	3	35	
0	0	0	0	0	41	25	455	307	3	35	
1	0	0	0	0	44	25	455	307	3	35	
2	0	0	0	0	44	31	455	307	3	35	
3	0	0	0	0	41	30	457	307	3	35	
4	0	0	0	0	44	25	460	307	3	35	
5	0	0	0	0	44	28	462	307	3	35	
6	0	0	0	0	41	24	463	307	3	35	
7	0	0	0	0	44	30	463	307	3	35	
8	0	0	0	0	44	25	465	307	3	35	
9	0	0	0	0	44	25	467	307	3	35	
10	0	0	0	0	44	28	472	307	3	35	
11	0	0	0	0	44	25	472	307	3	35	
12	0	0	0	0	44	25	472	305	3	35	
13	0	0	0	0	41	25	476	307	3	35	
14	0	0	0	0	41	28	476	307	3	35	
15	0	0	0	0	44	24	478	305	3	35	
0	0	0	0	0	44	25	480	305	3	35	
1	0	0	0	0	44	30	480	305	3	35	
2	0	0	0	0	44	28	480	305	3	35	
3	0	0	0	0	44	28	481	305	3	35	
4	0	0	0	0	44	30	483	305	3	35	
5	0	0	0	0	44	30	486	305	3	35	
6	0	0	0	0	44	25	487	305	3	35	
7	0	0	0	0	44	25	487	305	3	35	
8	0	0	0	0	41	28	489	305	3	35	
9	0	0	0	0	44	25	492	305	3	35	
10	0	0	0	0	44	30	494	305	3	35	
11	0	0	0	0	41	28	496	305	3	35	
12	0	0	0	0	44	25	497	305	3	35	
13	0	0	0	0	44	30	499	305	3	35	
14	0	0	0	0	44	25	504	305	3	35	
15	0	0	0	0	44	30	504	305	3	35	
0	0	0	0	0	41	25	504	305	3	35	
1	0	0	0	0	44	30	508	305	3	35	
2	0	0	0	0	44	28	508	305	3	35	
3	0	0	0	0	44	31	510	305	3	35	
4	0	0	0	0	44	28	511	305	3	35	
5	0	0	0	0	41	30	512	305	3	35	
6	0	0	0	0	44	24	513	305	3	35	
7	0	0	0	0	44	27	515	305	3	35	
8	0	0	0	0	44	25	515	307	3	35	
9	0	0	0	0	44	25	518	307	3	35	
10	0	0	0	0	44	25	519	307	3	35	
11	0	0	0	0	44	25	519	307	3	35	
12	0	0	0	0	44	25	521	307	3	35	
13	0	0	0	0	44	27	524	307	3	35	
14	0	0	0	0	39	28	524	307	3	35	
15	0	0	0	0	44	24	526	307	3	35	
0	0	0	0	0	44	33	527	307	3	35	
1	0	0	0	0	41	28	527	307	3	35	
2	0	0	0	0	44	30	527	307	3	35	
3	0	0	0	0	44	30	529	307	3	35	
4	0	0	0	0	44	27	531	305	3	35	
5	0	0	0	0	44	31	531	305	3	35	
6	0	0	0	0	44	25	531	305	3	35	
7	0	0	0	0	44	25	531	305	3	35	
8	0	0	0	0	44	28	534	305	3	35	
9	0	0	0	0	41	25	536	305	3	35	
10	0	0	0	0	44	28	536	305	3	35	
11	0	0	0	0	44	28	536	304	3	35	
12	0	0	0	0	44	25	536	304	3	35	
13	0	0	0	0	44	30	536	304	3	35	
14	0	0	0	0	44	31	536	304	3	35	
15	0	0	0	0	44	31	536	304	3	35	
0	0	0	0	0	44	25	536	304	3	35	
1	0	0	0	0	44	25	536	304	3	35	
2	0	0	0	0	44	28	536	304	3	35	
3	0	0	0	0	41	30	536	304	3	35	
4	0	0	0	0	44	31	536	304	3	35	
5	0	0	0	0	44	28	537	305	3	35	
6	0	0	0	0	41	24	537	305	3	35	
7	0	0	0	0	44	30	537	305	3	35	
8	0	0	0	0	44	25	537	305	3	35	
9	0	0	0	0	44	27	537	305	3	35	
10	0	0	0	0	44	25	536	305	3	35	
11	0	0	0	0	44	30	536	307	3	35	
12	0	0	0	0	44	27	536	307	3	35	
13	0	0	0	0	44	28	536	307	3	35	
14	0	0	0	0	44	31	536	307	3	35	
15	0	0	0	0	44	25	537	307	3	35	
0	0	0	0	0	44	24	537	307	3	35	
1	0	0	0	0	44	24	537	307	3	35	
2	0	0	0	0	46	31	537	307	3	35	
3	0	0	0	0	44	31	537	305	3	35	
4	0	0	0	0	44	30	540	305	3	35	
5	0	0	0	0	44	28	540	305	3	35	
6	0	0	0	0	44	31	540	307	3	35	
7	0	0	0	0	44	28	540	305	3	35	
8	0	0	0	0	44	31	540	305	3	35	
9	0	0	0	0	44	25	540	305	3	35	
10	0	0	0	0	44	24	540	305	3	35	
11	0	0	0	0	41	28	540	305	3	35	
12	0	0	0	0	44	30	540	305	3	35	
13	0	0	0	0	44	27	540	305	3	35	
14	0	0	0	0	44	25	540	305	3	35	
15	0	0	0	0	44	24	540	305	3	35	
0	0	0	0	0	44	25	537	305	3	35	
1	0	0	0	0	44	30	536	305	3	35	
2	0	0	0	0	44	28	536	305	3	35	
3	0	0	0	0	41	25	536	305	3	35	
4	0	0	0	0	44	31	536	305	3	35	
5	0	0	0	0	44	28	536	305	3	35	
6	0	0	0	0	41	28	536	305	3	35	
7	0	0	0	0	44	31	536	305	3	35	
8	0	0	0	0	44	28	536	305	3	35	
9	0	0	0	0	44	30	536	305	3	35	
10	0	0	0	0	44	30	536	305	3	35	
11	0	0	0	0	44	28	536	305	3	35	
12	0	0	0	0	44	30	536	307	3	35	
13	0	0	0	0	44	30	536	307	3	35	
14	0	0	0	0	41	28	536	307	3	35	
15	0	0	0	0	44	24	536	307	3	35	
0	0	0	0	0	41	24	536	307	3	35	
1	0	0	0	0	41	24	536	307	3	35	
2	0	0	0	0	44	28	536	307	3	35	
3	0	0	0	0	44	28	536	307	3	35	
4	0	0	0	0	43	28	536	307	3	35	
5	0	0	0	0	44	31	536	307	3	35	
6	0	0	0	0	44	28	536	307	3	35	
7	0	0	0	0	44	28	536	307	3	35	
8	0	0	0	0	44	28	536	307	3	35	
9	0	0	0	0	44	25	536	307	3	35	
10	0	0	0	0	44	28	534	307	3	35	
11	0	0	0	0	41	25	534	307	3	35	
12	0	0	0	0	44	30	534	307	3	35	
13	0	0	0	0	44	30	534	307	3	35	
14	0	0	0	0	44	25	532	307	3	35	
15	0	0	0	0	44	25	532	307	3	35	
0	0	0	0	0	44	25	531	307	3	35	
1	0	0	0	0	44	30	531	307	3	35	
2	0	0	0	0	44	28	531	307	3	35	
3	0	0	0	0	41	30	531	307	3	35	
4	0	0	0	0	44	28	531	307	3	35	
5	0	0	0	0	44	24	531	307	3	35	
6	0	0	0	0	44	30	531	307	3	35	
7	0	0	0	0	44	28	529	307	3	35	
8	0	0	0	0	44	31	529	305	3	35	
9	0	0	0	0	44	25	527	305	3	35	
10	0	0	0	0	44	25	527	305	3	35	
11	0	0	0	0	44	25	527	305	3	35	
12	0	0	0	0	44	30	527	305	3	35	
13	0	0	0	0	44	25	527	305	3	35	
14	0	0	0	0	44	31	527	305	3	35	
15	0	0	0	0	44	25	527	305	3	35	
0	0	0	0	0	44	28	527	305	3	35	
1	0	0	0	0	41	24	527	305	3	35	
2	0	0	0	0	44	30	527	305	3	35	
3	0	0	0	0	44	31	527	304	3	35	
4	0	0	0	0	44	25	527	305	3	35	
5	0	0	0	0	44	27	527	305	3	35	
6	0	0	0	0	44	25	527	305	3	35	
7	0	0	0	0	44	30	527	305	3	35	
8	0	0	0	0	44	28	527	305	3	35	
9	0	0	0	0	44	28	527	305	3	35	
10	0	0	0	0	44	24	527	305	3	35	
11	0	0	0	0	44	30	527	307	3	35	
12	0	0	0	0	41	28	526	307	3	35	
13	0	0	0	0	44	25	526	307	3	35	
14	0	0	0	0	44	30	524	307	3	35	
15	0	0	0	0	44	30	524	307	3	35	
0	0	0	0	0	44	30	524	307	3	35	
1	0	0	0	0	44	28	521	307	3	35	
2	0	0	0	0	44	28	519	307	3	35	
3	0	0	0	0	44	28	519	307	3	35	
4	0	0	0	0	44	28	519	307	3	35	
5	0	0	0	0	44	30	519	307	3	35	
6	0	0	0	0	44	28	519	307	3	35	
7	0	0	0	0	44	28	519	307	3	35	
8	0	0	0	0	44	31	519	307	3	35	
9	0	0	0	0	44	27	519	307	3	35	
10	0	0	0	0	44	27	519	307	3	35	
11	0	0	0	0	44	27	519	307	3	35	
12	0	0	0	0	41	27	519	307	3	35	
13	0	0	0	0	44	30	519	307	3	35	
14	0	0	0	0	44	31	519	307	3	35	
15	0	0	0	0	44	24	519	307	3	35	
0	0	0	0	0	44	25	519	307	3	35	
1	0	0	0	0	44	31	519	307	3	35	
2	0	0	0	0	44	30	521	307	3	35	
3	0	0	0	0	44	28	521	307	3	35	
4	0	0	0	0	44	28	521	307	3	35	
5	0	0	0	0	44	28	521	307	3	35	
6	0	0	0	0	44	30	521	307	3	35	
7	0	0	0	0	44	30	524	307	3	35	
8	0	0	0	0	44	28	524	307	3	35	
9	0	0	0	0	44	31	524	307	3	35	
10	0	0	0	0	44	28	524	307	3	35	
11	0	0	0	0	41	28	524	307	3	35	
12	0	0	0	0	44	28	524	307	3	35	
13	0	0	0	0	44	28	524	307	3	35	
14	0	0	0	0	44	28	524	307	3	35	
15	0	0	0	0	44	28	521	307	3	35	
0	0	0	0	0	44	27	521	307	3	35	
1	0	0	0	0	44	30	521	307	3	35	
2	0	0	0	0	46	31	519	307	3	35	
3	0	0	0	0	41	28	519	307	3	35	
4	0	0	0	0	41	28	519	307	3	35	
5	0	0	0	0	44	24	519	307	3	35	
6	0	0	0	0	41	24	519	307	3	35	
7	0	0	0	0	44	30	519	307	3	35	
8	0	0	0	0	44	28	519	307	3	35	
9	0	0	0	0	44	31	519	307	3	35	
10	0	0	0	0	44	31	519	307	3	35	
11	0	0	0	0	44	25	519	305	3	35	
12	0	0	0	0	44	25	519	305	3	35	
13	0	0	0	0	44	27	519	305	3	35	
14	0	0	0	0	41	28	519	305	3	35	
15	0	0	0	0	44	24	519	305	3	35	
0	0	0	0	0	44	24	519	307	3	35	
1	0	0	0	0	41	30	519	307	3	35	
2	0	0	0	0	44	28	519	307	3	35	
3	0	0	0	0	44	28	519	307	3	35	
4	0	0	0	0	44	28	519	307	3	35	
5	0	0	0	0	44	28	519	307	3	35	
6	0	0	0	0	44	28	519	307	3	35	
7	0	0	0	0	44	30	519	307	3	35	
8	0	0	0	0	44	28	518	307	3	35	
9	0	0	0	0	44	25	515	307	3	35	
10	0	0	0	0	44	30	515	307	3	35	
11	0	0	0	0	41	30	515	307	3	35	
12	0	0	0	0	44	30	513	305	3	35	
13	0	0	0	0	44	30	513	305	3	35	
14	0	0	0	0	44	25	513	305	3	35	
15	0	0	0	0	44	25	513	305	3	35	
0	0	0	0	0	44	30	515	305	3	35	
1	0	0	0	0	44	25	515	305	3	35	
2	0	0	0	0	44	28	515	304	3	35	
3	0	0	0	0	44	33	515	304	3	35	
4	0	0	0	0	44	28	518	304	3	35	
5	0	0	0	0	44	25	518	304	3	35	
6	0	0	0	0	44	28	518	304	3	35	
7	0	0	0	0	44	25	518	304	3	35	
8	0	0	0	0	44	28	515	304	3	35	
9	0	0	0	0	44	28	515	304	3	35	
10	0	0	0	0	44	25	515	304	3	35	
11	0	0	0	0	44	25	515	304	3	35	
12	0	0	0	0	44	25	515	304	3	35	
13	0	0	0	0	44	31	515	304	3	35	
14	0	0	0	0	44	30	513	303	3	35	
15	0	0	0	0	44	25	513	304	3	35	
0	0	0	0	0	44	25	513	304	3	35	
1	0	0	0	0	44	28	513	304	3	35	
2	0	0	0	0	44	28	513	304	3	35	
3	0	0	0	0	44	25	515	304	3	35	
4	0	0	0	0	44	25	515	304	3	35	
5	0	0	0	0	44	25	515	304	3	35	
6	0	0	0	0	44	25	515	304	3	35	
7	0	0	0	0	44	30	515	304	3	35	
8	0	0	0	0	44	31	515	304	3	35	
9	0	0	0	0	44	25	513	304	3	35	
10	0	0	0	0	44	25	513	304	3	35	
11	0	0	0	0	44	31	512	304	3	35	
12	0	0	0	0	44	25	512	304	3	35	
13	0	0	0	0	44	25	511	304	3	35	
14	0	0	0	0	44	25	510	304	3	35	
15	0	0	0	0	44	25	510	304	3	35	
0	0	0	0	0	44	25	508	305	3	35	
1	0	0	0	0	44	30	508	305	3	35	
2	0	0	0	0	44	28	508	305	3	35	
3	0	0	0	0	41	28	505	305	3	35	
4	0	0	0	0	46	31	505	305	3	35	
5	0	0	0	0	44	24	505	307	3	35	
6	0	0	0	0	41	25	505	305	3	35	
7	0	0	0	0	44	30	505	305	3	35	
8	0	0	0	0	44	30	508	307	3	35	
9	0	0	0	0	44	25	508	307	3	35	
10	0	0	0	0	44	30	508	307	3	35	
11	0	0	0	0	44	30	508	307	3	35	
12	0	0	0	0	44	30	508	307	3	35	
13	0	0	0	0	44	25	508	307	3	35	
14	0	0	0	0	41	28	508	307	3	35	
15	0	0	0	0	44	24	505	307	3	35	
0	0	0	0	0	44	24	505	307	3	35	
1	0	0	0	0	44	31	504	307	3	35	
2	0	0	0	0	44	28	504	307	3	35	
3	0	0	0	0	44	30	504	307	3	35	
4	0	0	0	0	44	30	504	307	3	35	
5	0	0	0	0	44	27	504	307	3	35	
6	0	0	0	0	44	27	504	307	3	35	
7	0	0	0	0	44	27	502	307	3	35	
8	0	0	0	0	44	28	500	307	3	35	
9	0	0	0	0	44	30	499	307	3	35	
10	0	0	0	0	44	25	499	307	3	35	
11	0	0	0	0	44	25	500	307	3	35	
12	0	0	0	0	44	25	502	307	3	35	
13	0	0	0	0	44	25	502	307	3	35	
14	0	0	0	0	44	30	502	307	3	35	
15	0	0	0	0	44	25	502	307	3	35	
0	0	0	0	0	44	25	502	307	3	35	
1	0	0	0	0	44	25	500	305	3	35	
2	0	0	0	0	41	27	499	305	3	35	
3	0	0	0	0	41	30	499	305	3	35	
4	0	0	0	0	44	28	499	305	3	35	
5	0	0	0	0	41	25	499	305	3	35	
6	0	0	0	0	41	24	499	305	3	35	
7	0	0	0	0	41	24	499	305	3	35	
8	0	0	0	0	41	25	499	305	3	35	
9	0	0	0	0	44	25	499	307	3	35	
10	0	0	0	0	44	25	499	305	3	35	
11	0	0	0	0	44	25	499	305	3	35	
12	0	0	0	0	44	25	499	307	3	35	
13	0	0	0	0	44	25	499	305	3	35	
14	0	0	0	0	44	31	499	307	3	35	
15	0	0	0	0	44	28	499	307	3	35	
0	0	0	0	0	44	28	499	307	3	35	
1	0	0	0	0	41	24	499	307	3	35	
2	0	0	0	0	44	28	499	307	3	35	
3	0	0	0	0	44	31	500	307	3	35	
4	0	0	0	0	44	30	502	307	3	35	
5	0	0	0	0	44	30	504	307	3	35	
6	0	0	0	0	44	25	504	305	3	35	
7	0	0	0	0	44	30	504	305	3	35	
8	0	0	0	0	44	28	504	305	3	35	
9	0	0	0	0	41	25	504	305	3	35	
10	0	0	0	0	44	25	504	305	3	35	
11	0	0	0	0	44	30	504	305	3	35	
12	0	0	0	0	44	30	504	305	3	35	
13	0	0	0	0	44	25	504	305	3	35	
14	0	0	0	0	44	28	504	305	3	35	
15	0	0	0	0	44	25	504	305	3	35	
0	0	0	0	0	44	25	504	304	3	35	
1	0	0	0	0	44	25	504	304	3	35	
2	0	0	0	0	44	28	504	304	3	35	
3	0	0	0	0	39	25	504	304	3	35	
4	0	0	0	0	44	25	504	304	3	35	
5	0	0	0	0	44	31	504	304	3	35	
6	0	0	0	0	44	28	505	304	3	35	
7	0	0	0	0	44	25	508	304	3	35	
8	0	0	0	0	44	25	508	304	3	35	
9	0	0	0	0	44	25	508	304	3	35	
10	0	0	0	0	44	25	508	304	3	35	
11	0	0	0	0	44	25	510	304	3	35	
12	0	0	0	0	44	25	510	304	3	35	
13	0	0	0	0	44	28	510	304	3	35	
14	0	0	0	0	44	30	511	304	3	35	
15	0	0	0	0	44	24	511	304	3	35	
0	0	0	0	0	44	28	511	304	3	35	
1	0	0	0	0	41	28	511	304	3	35	
2	0	0	0	0	44	31	510	305	3	35	
3	0	0	0	0	44	25	510	305	3	35	
4	0	0	0	0	44	25	510	305	3	35	
5	0	0	0	0	44	25	510	305	3	35	
6	0	0	0	0	44	25	510	305	3	35	
7	0	0	0	0	44	25	510	305	3	35	
8	0	0	0	0	44	28	510	305	3	35	
9	0	0	0	0	41	25	510	305	3	35	
10	0	0	0	0	44	28	510	307	3	35	
11	0	0	0	0	44	31	510	305	3	35	
12	0	0	0	0	44	25	510	307	3	35	
13	0	0	0	0	44	30	510	307	3	35	
14	0	0	0	0	44	25	511	307	3	35	
15	0	0	0	0	44	25	511	307	3	35	
0	0	0	0	0	44	25	511	307	3	35	
1	0	0	0	0	44	30	511	307	3	35	
2	0	0	0	0	44	28	511	307	3	35	
3	0	0	0	0	44	31	511	307	3	35	
4	0	0	0	0	44	30	511	307	3	35	
5	0	0	0	0	44	28	510	307	3	35	
6	0	0	0	0	44	31	510	307	3	35	
7	0	0	0	0	44	30	508	307	3	35	
8	0	0	0	0	44	25	508	307	3	35	
9	0	0	0	0	44	25	505	307	3	35	
10	0	0	0	0	44	25	504	307	3	35	
11	0	0	0	0	44	25	504	307	3	35	
12	0	0	0	0	44	30	504	307	3	35	
13	0	0	0	0	44	31	504	307	3	35	
14	0	0	0	0	44	31	504	307	3	35	
15	0	0	0	0	44	28	504	307	3	35	
0	0	0	0	0	44	24	504	307	3	35	
1	0	0	0	0	44	24	504	307	3	35	
2	0	0	0	0	44	28	504	307	3	35	
3	0	0	0	0	44	25	504	307	3	35	
4	0	0	0	0	44	25	504	307	3	35	
5	0	0	0	0	44	30	504	307	3	35	
6	0	0	0	0	44	31	504	307	3	35	
7	0	0	0	0	44	25	504	307	3	35	
8	0	0	0	0	44	31	504	307	3	35	
9	0	0	0	0	44	25	504	307	3	35	
10	0	0	0	0	44	31	504	307	3	35	
11	0	0	0	0	44	28	504	307	3	35	
12	0	0	0	0	44	25	504	307	3	35	
13	0	0	0	0	44	25	504	307	3	35	
14	0	0	0	0	44	25	504	307	3	35	
15	0	0	0	0	44	28	504	305	3	35	
0	0	0	0	0	41	25	504	305	3	35	
1	0	0	0	0	41	25	504	307	3	35	
2	0	0	0	0	44	27	504	305	3	35	
3	0	0	0	0	39	28	504	307	3	35	
4	0	0	0	0	44	28	504	305	3	35	
5	0	0	0	0	44	28	504	305	3	35	
6	0	0	0	0	44	24	504	305	3	35	
7	0	0	0	0	44	30	504	305	3	35	
8	0	0	0	0	41	25	504	305	3	35	
9	0	0	0	0	44	25	504	305	3	35	
10	0	0	0	0	44	25	504	305	3	35	
11	0	0	0	0	44	24	504	305	3	35	
12	0	0	0	0	44	25	502	305	3	35	
13	0	0	0	0	44	25	502	305	3	35	
14	0	0	0	0	41	28	499	305	3	35	
15	0	0	0	0	44	31	499	305	3	35	
0	0	0	0	0	44	28	499	305	3	35	
1	0	0	0	0	44	25	499	305	3	35	
2	0	0	0	0	44	28	499	305	3	35	
3	0	0	0	0	44	25	499	305	3	35	
4	0	0	0	0	44	25	499	305	3	35	
5	0	0	0	0	44	25	499	305	3	35	
6	0	0	0	0	44	25	499	305	3	35	
7	0	0	0	0	44	30	499	305	3	35	
8	0	0	0	0	44	28	499	305	3	35	
9	0	0	0	0	44	25	502	305	3	35	
10	0	0	0	0	44	24	504	305	3	35	
11	0	0	0	0	43	24	504	304	3	35	
12	0	0	0	0	44	28	504	304	3	35	
13	0	0	0	0	44	25	504	304	3	35	
14	0	0	0	0	44	28	504	304	3	35	
15	0	0	0	0	41	25	504	304	3	35	
0	0	0	0	0	44	25	505	304	3	35	
1	0	0	0	0	44	31	508	304	3	35	
2	0	0	0	0	44	27	508	304	3	35	
3	0	0	0	0	41	28	508	304	3	35	
4	0	0	0	0	44	30	510	304	3	35	
5	0	0	0	0	44	28	511	304	3	35	
6	0	0	0	0	44	25	512	304	3	35	
7	0	0	0	0	44	25	513	304	3	35	
8	0	0	0	0	44	25	515	304	3	35	
9	0	0	0	0	44	25	518	304	3	35	
10	0	0	0	0	44	30	519	305	3	35	
11	0	0	0	0	44	25	519	305	3	35	
12	0	0	0	0	44	30	524	305	3	35	
13	0	0	0	0	41	25	524	305	3	35	
14	0	0	0	0	41	28	527	305	3	35	
15	0	0	0	0	44	25	527	305	3	35	
0	0	0	0	0	44	30	527	307	3	35	
1	0	0	0	0	41	28	529	307	3	35	
2	0	0	0	0	44	28	531	307	3	35	
3	0	0	0	0	44	28	531	307	3	35	
4	0	0	0	0	44	30	531	307	3	35	
5	0	0	0	0	44	28	531	307	3	35	
6	0	0	0	0	44	28	531	307	3	35	
7	0	0	0	0	44	28	531	307	3	35	
8	0	0	0	0	44	28	531	307	3	35	
9	0	0	0	0	44	28	531	307	3	35	
10	0	0	0	0	44	28	531	307	3	35	
11	0	0	0	0	44	30	531	307	3	35	
12	0	0	0	0	44	30	529	307	3	35	
13	0	0	0	0	44	30	529	307	3	35	
14	0	0	0	0	44	30	527	307	3	35	
15	0	0	0	0	44	25	527	307	3	35	
0	0	0	0	0	44	25	527	307	3	35	
1	0	0	0	0	44	31	527	307	3	35	
2	0	0	0	0	44	28	527	305	3	35	
3	0	0	0	0	44	25	527	305	3	35	
4	0	0	0	0	44	30	527	305	3	35	
5	0	0	0	0	44	28	527	305	3	35	
6	0	0	0	0	41	30	527	305	3	35	
7	0	0	0	0	44	28	527	307	3	35	
8	0	0	0	0	44	25	527	305	3	35	
9	0	0	0	0	44	25	527	307	3	35	
10	0	0	0	0	44	25	527	307	3	35	
11	0	0	0	0	44	25	527	307	3	35	
12	0	0	0	0	44	25	527	307	3	35	
13	0	0	0	0	44	30	527	307	3	35	
14	0	0	0	0	41	28	527	307	3	35	
15	0	0	0	0	44	24	527	307	3	35	
0	0	0	0	0	44	31	527	307	3	35	
1	0	0	0	0	44	24	527	307	3	35	
2	0	0	0	0	44	28	527	307	3	35	
3	0	0	0	0	44	28	527	307	3	35	
4	0	0	0	0	44	30	527	307	3	35	
5	0	0	0	0	44	28	527	307	3	35	
6	0	0	0	0	44	31	527	307	3	35	
7	0	0	0	0	44	27	527	307	3	35	
8	0	0	0	0	44	28	527	307	3	35	
9	0	0	0	0	44	31	527	307	3	35	
10	0	0	0	0	44	28	527	307	3	35	
11	0	0	0	0	44	24	527	307	3	35	
12	0	0	0	0	44	30	527	307	3	35	
13	0	0	0	0	44	25	527	305	3	35	
14	0	0	0	0	44	25	527	305	3	35	
15	0	0	0	0	44	25	527	305	3	35	
0	0	0	0	0	44	25	527	305	3	35	
1	0	0	0	0	44	31	527	305	3	35	
2	0	0	0	0	44	28	527	305	3	35	
3	0	0	0	0	41	25	527	305	3	35	
4	0	0	0	0	44	28	527	305	3	35	
5	0	0	0	0	44	24	527	305	3	35	
6	0	0	0	0	44	25	527	305	3	35	
7	0	0	0	0	44	30	527	305	3	35	
8	0	0	0	0	44	30	529	305	3	35	
9	0	0	0	0	44	25	531	305	3	35	
10	0	0	0	0	44	30	531	305	3	35	
11	0	0	0	0	44	25	536	305	3	35	
12	0	0	0	0	44	25	536	305	3	35	
13	0	0	0	0	44	27	537	305	3	35	
14	0	0	0	0	41	28	540	305	3	35	
15	0	0	0	0	44	24	542	305	3	35	
0	0	0	0	0	41	25	543	305	3	35	
1	0	0	0	0	41	25	543	305	3	35	
2	0	0	0	0	46	31	543	305	3	35	
3	0	0	0	0	41	27	543	305	3	35	
4	0	0	0	0	44	30	543	305	3	35	
5	0	0	0	0	41	28	543	305	3	35	
6	0	0	0	0	44	28	543	305	3	35	
7	0	0	0	0	44	28	540	305	3	35	
8	0	0	0	0	44	31	536	305	3	35	
9	0	0	0	0	44	28	531	305	3	35	
10	0	0	0	0	44	31	524	305	3	35	
11	0	0	0	0	44	28	515	305	3	35	
12	0	0	0	0	44	25	508	305	3	35	
13	0	0	0	0	44	25	496	305	3	35	
14	0	0	0	0	44	25	483	305	3	35	
15	0	0	0	0	44	25	467	305	3	35	
0	0	0	0	0	44	25	451	305	3	35	
1	0	0	0	0	44	28	433	305	3	35	
2	0	0	0	0	44	28	414	305	3	35	
3	0	0	0	0	41	28	391	305	3	35	
4	0	0	0	0	44	25	371	304	3	35	
5	0	0	0	0	44	28	352	304	3	35	
6	0	0	0	0	41	28	327	304	3	35	
7	0	0	0	0	44	24	310	304	3	35	
8	0	0	0	0	41	24	287	304	3	35	
9	0	0	0	0	44	31	271	304	3	35	
10	0	0	0	0	44	24	255	304	3	35	
11	0	0	0	0	44	24	240	304	3	35	
12	0	0	0	0	44	24	227	304	3	35	
13	0	0	0	0	44	24	217	304	3	35	
14	0	0	0	0	44	28	209	304	3	35	
15	0	0	0	0	44	24	206	304	3	35	
0	0	0	0	0	44	24	204	304	3	35	
1	0	0	0	0	44	28	204	304	3	35	
2	0	0	0	0	44	24	207	305	3	35	
3	0	0	0	0	44	24	217	305	3	35	
4	0	0	0	0	44	28	230	305	3	35	
5	0	0	0	0	44	24	246	305	3	35	
6	0	0	0	0	44	24	263	305	3	35	
7	0	0	0	0	44	24	284	305	3	35	
8	0	0	0	0	44	30	307	307	3	35	
9	0	0	0	0	44	28	332	307	3	35	
10	0	0	0	0	41	24	355	307	3	35	
11	0	0	0	0	43	24	384	307	3	35	
12	0	0	0	0	44	28	408	307	3	35	
13	0	0	0	0	44	28	433	307	3	35	
14	0	0	0	0	44	25	460	307	3	35	
15	0	0	0	0	44	30	480	307	3	35	
0	0	0	0	0	41	25	504	307	3	35	
1	0	0	0	0	44	30	519	307	3	35	
2	0	0	0	0	44	28	536	307	3	35	
3	0	0	0	0	41	28	543	305	3	35	
4	0	0	0	0	44	28	556	305	3	35	
5	0	0	0	0	44	25	560	305	3	35	
6	0	0	0	0	44	28	561	305	3	35	
7	0	0	0	0	44	28	560	305	3	35	
8	0	0	0	0	44	28	560	304	3	35	
9	0	0	0	0	41	25	551	304	3	35	
10	0	0	0	0	44	25	547	304	3	35	
11	0	0	0	0	44	30	542	304	3	35	
12	0	0	0	0	44	25	536	304	3	35	
13	0	0	0	0	44	25	527	304	3	35	
14	0	0	0	0	41	28	519	304	3	35	
15	0	0	0	0	44	25	515	304	3	35	
0	0	0	0	0	44	25	511	304	3	35	
1	0	0	0	0	44	28	508	304	3	35	
2	0	0	0	0	44	28	505	304	3	35	
3	0	0	0	0	44	30	504	304	3	35	
4	0	0	0	0	44	25	504	305	3	35	
5	0	0	0	0	41	25	504	305	3	35	
6	0	0	0	0	44	25	504	305	3	35	
7	0	0	0	0	44	31	505	305	3	35	
8	0	0	0	0	44	28	508	305	3	35	
9	0	0	0	0	41	25	511	307	3	35	
10	0	0	0	0	44	30	512	307	3	35	
11	0	0	0	0	44	28	513	307	3	35	
12	0	0	0	0	41	25	515	307	3	35	
13	0	0	0	0	44	25	518	307	3	35	
14	0	0	0	0	44	25	519	307	3	35	
15	0	0	0	0	44	27	519	307	3	35	
0	0	0	0	0	44	30	519	307	3	35	
1	0	0	0	0	44	28	519	307	3	35	
2	0	0	0	0	44	31	519	307	3	35	
3	0	0	0	0	41	30	521	307	3	35	
4	0	0	0	0	44	28	521	307	3	35	
5	0	0	0	0	44	35	524	307	3	35	
6	0	0	0	0	41	24	524	307	3	35	
7	0	0	0	0	44	28	524	307	3	35	
8	0	0	0	0	44	30	524	307	3	35	
9	0	0	0	0	44	30	524	307	3	35	
10	0	0	0	0	44	28	524	307	3	35	
11	0	0	0	0	44	31	524	307	3	35	
12	0	0	0	0	44	30	524	307	3	35	
13	0	0	0	0	44	30	524	307	3	35	
14	0	0	0	0	41	28	524	307	3	35	
15	0	0	0	0	44	25	524	307	3	35	
0	0	0	0	0	44	25	524	307	3	35	
1	0	0	0	0	44	28	524	307	3	35	
2	0	0	0	0	44	28	524	307	3	35	
3	0	0	0	0	44	24	524	307	3	35	
4	0	0	0	0	44	30	524	307	3	35	
5	0	0	0	0	44	30	524	307	3	35	
6	0	0	0	0	44	25	523	307	3	35	
7	0	0	0	0	44	27	521	307	3	35	
8	0	0	0	0	44	33	519	307	3	35	
9	0	0	0	0	44	25	519	307	3	35	
10	0	0	0	0	44	28	519	307	3	35	
11	0	0	0	0	41	24	519	307	3	35	
12	0	0	0	0	44	30	519	307	3	35	
13	0	0	0	0	44	25	519	307	3	35	
14	0	0	0	0	44	30	519	307	3	35	
15	0	0	0	0	44	30	519	307	3	35	
0	0	0	0	0	44	25	519	307	3	35	
1	0	0	0	0	44	28	519	307	3	35	
2	0	0	0	0	44	28	519	307	3	35	
3	0	0	0	0	39	25	519	307	3	35	
4	0	0	0	0	44	28	519	307	3	35	
5	0	0	0	0	44	30	519	307	3	35	
6	0	0	0	0	41	25	519	307	3	35	
7	0	0	0	0	44	31	519	307	3	35	
8	0	0	0	0	41	27	519	307	3	35	
9	0	0	0	0	44	30	519	307	3	35	
10	0	0	0	0	44	30	518	307	3	35	
11	0	0	0	0	44	30	518	307	3	35	
12	0	0	0	0	44	25	516	307	3	35	
13	0	0	0	0	44	27	515	305	3	35	
14	0	0	0	0	41	28	515	305	3	35	
15	0	0	0	0	44	25	515	305	3	35	
0	0	0	0	0	41	28	515	305	3	35	
1	0	0	0	0	41	28	515	305	3	35	
2	0	0	0	0	44	28	515	305	3	35	
3	0	0	0	0	44	25	515	305	3	35	
4	0	0	0	0	41	25	515	305	3	35	
5	0	0	0	0	44	31	515	305	3	35	
6	0	0	0	0	44	25	515	305	3	35	
7	0	0	0	0	44	30	513	305	3	35	
8	0	0	0	0	44	28	513	305	3	35	
9	0	0	0	0	44	28	513	305	3	35	
10	0	0	0	0	44	28	512	305	3	35	
11	0	0	0	0	41	28	512	305	3	35	
12	0	0	0	0	44	30	512	305	3	35	
13	0	0	0	0	44	30	512	305	3	35	
14	0	0	0	0	44	30	511	307	3	35	
15	0	0	0	0	44	30	511	307	3	35	
0	0	0	0	0	44	25	511	307	3	35	
1	0	0	0	0	44	30	511	307	3	35	
2	0	0	0	0	44	28	510	307	3	35	
3	0	0	0	0	41	30	510	307	3	35	
4	0	0	0	0	44	28	510	307	3	35	
5	0	0	0	0	44	24	510	307	3	35	
6	0	0	0	0	44	30	510	307	3	35	
7	0	0	0	0	44	28	510	307	3	35	
8	0	0	0	0	44	27	510	307	3	35	
9	0	0	0	0	44	30	510	307	3	35	
10	0	0	0	0	44	25	510	307	3	35	
11	0	0	0	0	44	30	510	307	3	35	
12	0	0	0	0	41	25	510	307	3	35	
13	0	0	0	0	44	30	508	307	3	35	
14	0	0	0	0	44	31	508	307	3	35	
15	0	0	0	0	44	25	508	307	3	35	
0	0	0	0	0	44	24	505	307	3	35	
1	0	0	0	0	44	28	504	307	3	35	
2	0	0	0	0	44	28	504	307	3	35	
3	0	0	0	0	44	30	504	307	3	35	
4	0	0	0	0	44	25	504	307	3	35	
5	0	0	0	0	44	25	502	307	3	35	
6	0	0	0	0	44	25	499	307	3	35	
7	0	0	0	0	44	25	499	305	3	35	
8	0	0	0	0	44	33	499	307	3	35	
9	0	0	0	0	41	25	497	305	3	35	
10	0	0	0	0	43	28	497	305	3	35	
11	0	0	0	0	44	28	496	307	3	35	
12	0	0	0	0	44	25	496	305	3	35	
13	0	0	0	0	44	25	496	305	3	35	
14	0	0	0	0	44	25	496	305	3	35	
15	0	0	0	0	44	25	496	305	3	35	
0	0	0	0	0	44	25	494	305	3	35	
1	0	0	0	0	44	25	494	305	3	35	
2	0	0	0	0	44	30	492	305	3	35	
3	0	0	0	0	41	28	492	305	3	35	
4	0	0	0	0	44	25	489	305	3	35	
5	0	0	0	0	41	24	487	305	3	35	
6	0	0	0	0	44	25	487	305	3	35	
7	0	0	0	0	44	30	487	305	3	35	
8	0	0	0	0	44	25	487	305	3	35	
9	0	0	0	0	44	28	486	305	3	35	
10	0	0	0	0	44	25	483	305	3	35	
11	0	0	0	0	44	25	483	305	3	35	
12	0	0	0	0	44	28	483	305	3	35	
13	0	0	0	0	44	25	481	305	3	35	
14	0	0	0	0	41	28	481	305	3	35	
15	0	0	0	0	44	24	480	305	3	35	
0	0	0	0	0	44	30	480	305	3	35	
1	0	0	0	0	44	28	480	305	3	35	
2	0	0	0	0	44	28	480	305	3	35	
3	0	0	0	0	44	25	478	305	3	35	
4	0	0	0	0	44	28	476	305	3	35	
5	0	0	0	0	44	25	476	305	3	35	
6	0	0	0	0	44	31	473	305	3	35	
7	0	0	0	0	44	25	472	305	3	35	
8	0	0	0	0	44	25	472	305	3	35	
9	0	0	0	0	41	25	472	305	3	35	
10	0	0	0	0	44	25	470	305	3	35	
11	0	0	0	0	41	24	467	305	3	35	
12	0	0	0	0	44	25	467	305	3	35	
13	0	0	0	0	44	28	463	305	3	35	
14	0	0	0	0	44	25	463	305	3	35	
15	0	0	0	0	44	28	463	304	3	35	
0	0	0	0	0	44	25	463	305	3	35	
1	0	0	0	0	44	25	462	304	3	35	
2	0	0	0	0	44	25	462	304	3	35	
3	0	0	0	0	41	28	460	304	3	35	
4	0	0	0	0	44	28	460	304	3	35	
5	0	0	0	0	44	31	460	304	3	35	
6	0	0	0	0	41	28	460	304	3	35	
7	0	0	0	0	44	25	457	304	3	35	
8	0	0	0	0	44	25	455	304	3	35	
9	0	0	0	0	44	25	455	304	3	35	
10	0	0	0	0	44	25	455	304	3	35	
11	0	0	0	0	44	25	455	304	3	35	
12	0	0	0	0	44	25	455	304	3	35	
13	0	0	0	0	44	28	455	305	3	35	
14	0	0	0	0	44	30	454	305	3	35	
15	0	0	0	0	44	28	454	305	3	35	
0	0	0	0	0	44	24	454	305	3	35	
1	0	0	0	0	44	24	451	305	3	35	
2	0	0	0	0	44	25	451	305	3	35	
3	0	0	0	0	44	25	451	305	3	35	
4	0	0	0	0	44	25	451	305	3	35	
5	0	0	0	0	41	25	454	305	3	35	
6	0	0	0	0	44	25	454	305	3	35	
7	0	0	0	0	41	25	454	305	3	35	
8	0	0	0	0	44	28	455	305	3	35	
9	0	0	0	0	41	25	455	305	3	35	
10	0	0	0	0	44	25	455	305	3	35	
11	0	0	0	0	43	25	455	305	3	35	
12	0	0	0	0	44	25	455	305	3	35	
13	0	0	0	0	44	25	455	305	3	35	
14	0	0	0	0	44	25	455	305	3	35	
15	0	0	0	0	44	25	455	305	3	35	
0	0	0	0	0	44	25	455	305	3	35	
1	0	0	0	0	44	25	455	305	3	35	
2	0	0	0	0	44	31	455	305	3	35	
3	0	0	0	0	44	25	457	305	3	35	
4	0	0	0	0	44	28	460	305	3	35	
5	0	0	0	0	44	31	460	305	3	35	
6	0	0	0	0	44	24	462	305	3	35	
7	0	0	0	0	44	25	463	307	3	35	
8	0	0	0	0	44	25	463	307	3	35	
9	0	0	0	0	44	25	463	307	3	35	
10	0	0	0	0	44	25	467	307	3	35	
11	0	0	0	0	44	28	470	307	3	35	
12	0	0	0	0	44	25	472	307	3	35	
13	0	0	0	0	44	31	472	307	3	35	
14	0	0	0	0	44	31	476	307	3	35	
15	0	0	0	0	44	28	476	307	3	35	
0	0	0	0	0	44	28	480	307	3	35	
1	0	0	0	0	44	25	480	307	3	35	
2	0	0	0	0	44	28	483	307	3	35	
3	0	0	0	0	44	25	483	307	3	35	
4	0	0	0	0	44	25	487	307	3	35	
5	0	0	0	0	44	25	487	307	3	35	
6	0	0	0	0	44	25	487	307	3	35	
7	0	0	0	0	44	30	492	307	3	35	
8	0	0	0	0	44	31	494	307	3	35	
9	0	0	0	0	44	25	496	307	3	35	
10	0	0	0	0	44	24	496	307	3	35	
11	0	0	0	0	44	31	497	307	3	35	
12	0	0	0	0	44	25	499	305	3	35	
13	0	0	0	0	44	25	504	305	3	35	
14	0	0	0	0	44	25	504	305	3	35	
15	0	0	0	0	44	28	504	305	3	35	
0	0	0	0	0	44	25	508	305	3	35	
1	0	0	0	0	44	30	510	305	3	35	
2	0	0	0	0	44	28	511	305	3	35	
3	0	0	0	0	41	25	512	305	3	35	
4	0	0	0	0	44	31	513	305	3	35	
5	0	0	0	0	44	28	515	305	3	35	
6	0	0	0	0	41	28	515	305	3	35	
7	0	0	0	0	44	30	518	305	3	35	
8	0	0	0	0	44	30	519	305	3	35	
9	0	0	0	0	44	25	519	305	3	35	
10	0	0	0	0	44	30	519	305	3	35	
11	0	0	0	0	44	30	519	305	3	35	
12	0	0	0	0	44	25	521	307	3	35	
13	0	0	0	0	44	25	524	307	3	35	
14	0	0	0	0	44	31	524	307	3	35	
15	0	0	0	0	44	25	526	307	3	35	
0	0	0	0	0	44	25	527	307	3	35	
1	0	0	0	0	44	31	527	307	3	35	
2	0	0	0	0	44	28	527	307	3	35	
3	0	0	0	0	44	30	527	307	3	35	
4	0	0	0	0	44	30	529	307	3	35	
5	0	0	0	0	44	28	531	307	3	35	
6	0	0	0	0	44	28	531	307	3	35	
7	0	0	0	0	44	30	534	307	3	35	
8	0	0	0	0	44	28	536	307	3	35	
9	0	0	0	0	44	25	536	307	3	35	
10	0	0	0	0	44	24	536	307	3	35	
11	0	0	0	0	44	27	536	307	3	35	
12	0	0	0	0	44	30	536	307	3	35	
13	0	0	0	0	44	25	536	307	3	35	
14	0	0	0	0	44	30	536	307	3	35	
15	0	0	0	0	44	25	536	307	3	35	
0	0	0	0	0	44	25	536	305	3	35	
1	0	0	0	0	44	28	536	305	3	35	
2	0	0	0	0	44	28	536	305	3	35	
3	0	0	0	0	44	28	536	305	3	35	
4	0	0	0	0	46	31	536	305	3	35	
5	0	0	0	0	44	28	536	305	3	35	
6	0	0	0	0	44	28	536	305	3	35	
7	0	0	0	0	44	28	537	305	3	35	
8	0	0	0	0	44	30	540	305	3	35	
9	0	0	0	0	44	25	540	305	3	35	
10	0	0	0	0	44	25	540	305	3	35	
11	0	0	0	0	44	31	540	305	3	35	
12	0	0	0	0	44	25	540	305	3	35	
13	0	0	0	0	41	28	540	305	3	35	
14	0	0	0	0	41	28	540	305	3	35	
15	0	0	0	0	41	24	540	305	3	35	
0	0	0	0	0	44	28	540	304	3	35	
1	0	0	0	0	41	28	540	305	3	35	
2	0	0	0	0	44	28	540	305	3	35	
3	0	0	0	0	44	30	537	304	3	35	
4	0	0	0	0	44	28	537	305	3	35	
5	0	0	0	0	44	30	537	305	3	35	
6	0	0	0	0	44	30	537	305	3	35	
